-8927.5
-9695.6
-6839.1
-1454.1
4449.3
8691.4
9700.2
7076.9
1766.9
-4253.2
-8702.1
-9879.3
-7339.8
-2063.6
3944.8
8437.3
9756.4
7424.2
2303.7
-3707.7
-8361.8
-9896.5
-7718.2
-2647.1
3395.1
8129.1
9786.7
7763.6
2826
-3182.5
-8018.7
-9868.1
-8027.8
-3182.6
2847.7
7799.9
9824.4
8172.5
3463
-2554
-7638.8
-9884.8
-8433.4
-3813.9
2238.7
7437.7
9820.5
8496.2
3974
-2042.2
-7298.3
-9829.1
-8687.5
-4301.5
1681.2
7012
9692.6
8727.2
4487.4
-1439.9
-6846
-9714.3
-8962.5
-4854.9
1077.8
6601.6
9629.1
9022.8
5027.9
-838.41
-6376
-9526
-9121.3
-5306.4
507.78
6148.6
9485.7
9246.5
5519.4
-274.56
-5939.2
-9353.1
-9263.1
-5725.4
-59.639
5639.2
9253.2
9412.5
6019.1
316.33
-5556.3
-9375.1
-9693.8
-6402.2
-758
5105.2
8986.6
9433.4
6270.6
664.6
-5303.2
-9406.7
-10111
-7152.7
-1643.3
4360.5
8634.3
9619.8
7000.1
1814.4
-3922.6
-7962
-8664.4
-5635.9
92.298
6431.5
11025
12149
9376.2
3727.4
-2726.8
-7648.9
-9298.4
-7159.2
-2112.7
3895.8
8576.4
10144
7985.5
2895.3
-3222.6
-8074.7
-9846.4
-7886.5
-2945.7
3112.7
8016.3
9932.4
8148.9
3336.8
-2702.6
-7711.5
-9819
-8240.1
-3567.1
2452.2
7565.7
9854.8
8450.7
3864.3
-2195.3
-7454.4
-9930.1
-8684.6
-4186.5
1865.3
7189.4
9788.1
8698
4342.5
-1638.2
-7005.4
-9755.7
-8863.5
-4661.4
1281.9
6742.9
9673.9
8971.4
4893.6
-1033.9
-6588.7
-9686.3
-9163.2
-5214.4
679.94
6309
9560.9
9214.9
5399.4
-455.68
-6153.5
-9553.9
-9376.8
-5684.9
136.89
5901.4
9442.3
9430
5871.6
105.23
-5706.2
-9387.1
-9562.4
-6168.4
-474.89
5389
9228.4
9604.2
6373.5
746.64
-5165.5
-9143.8
-9695.4
-6613.1
-1051.9
4904.9
9025.4
9764.7
6844.6
1360.3
-4627.8
-8868.2
-9766.7
-6987.9
-1579.1
4427.6
8780.8
9854.1
7251.1
1949.7
-4065.1
-8542.1
-9805
-7378.8
-2167.3
3883.6
8513.1
9988.4
7752.7
2635.8
-3449.8
-8221.2
-9882.2
-7803.7
-2765.4
3338.8
8218.8
10053
8168.3
3283.9
-2765.8
-7716.1
-9713.4
-8004
-3219.7
2852.8
7938.9
10131
8609.9
3949.6
-2098.8
-7268.4
-9623.6
-8281.1
-3740
2300.9
7574
10093
8903.8
4449.4
-1595.2
-6957.8
-9628.4
-8615
-4309.6
1665.1
7066.8
9870.2
9022.6
4837.2
-1121.7
-6623.1
-9605.8
-8953.9
-4915.9
989.3
6544.2
9664.5
9180.1
5272.4
-593.72
-6220
-9499.5
-9206.7
-5455.2
347.94
6030.5
9465.4
9362.9
5753.8
-15.692
-5781.7
-9373.8
-9438.2
-5953.6
-239.32
5551
9246.8
9472.8
6153
529.66
-5298.7
-9152
-9579.3
-6409.2
-827.03
5064.7
9042.7
9608.8
6554
1029.7
-4892.6
-8996
-9742.3
-6846.3
-1389
4580.1
8814.8
9725.6
6981.8
1627.6
-4325.3
-8656.4
-9756.6
-7213.3
-1963.4
4040.8
8544
9833.6
7403.6
2164.6
-3898.4
-8491.2
-9889.5
-7584.3
-2454.1
3578.3
8263.6
9855.2
7756.8
2751.7
-3282.3
-8077.5
-9835.2
-7904.5
-3018.8
2990.5
7881.2
9827.7
8092.5
3305.4
-2754.3
-7811
-9950
-8354.2
-3624.3
2451
7583.6
9854.7
8429.3
3854.3
-2156.1
-7359.2
-9813.4
-8599.4
-4166.1
1831.7
7147.1
9781.3
8734.7
4387.1
-1635.8
-7068.2
-9858.4
-8950.8
-4690.9
1309.6
6792.7
9712
8994.4
4924.7
-973.41
-6502.8
-9600.6
-9102.2
-5185.2
683.72
6293.4
9527.3
9169
5359.4
-465.71
-6122.7
-9496.3
-9323.7
-5664.7
114.68
5847.4
9379
9384.1
5868.2
159.13
-5601
-9261.6
-9459.6
-6120
-483.82
5345.1
9177.2
9560.1
6337.1
717.24
-5179.6
-9130.2
-9653.2
-6563.6
-1031.7
4865.4
8922.6
9625.9
6712.2
1267.3
-4674.3
-8884
-9773.7
-6997.8
-1592.3
4409.7
8745.2
9779.7
7125.6
1784.9
-4234.5
-8675.7
-9875.6
-7382.8
-2127.1
3922.5
8491.1
9857.5
7510.6
2345.7
-3682.5
-8310.5
-9819.7
-7666.1
-2662.3
3332.3
8091.5
9833.5
7884.2
2949.5
-3126.3
-8048.7
-9952.7
-8122.2
-3259
2798.4
7778.8
9826.8
8182.7
3458.7
-2582.8
-7677.6
-9906
-8424.1
-3789.8
2250.1
7426.9
9806.1
8506
4016.5
-1986.2
-7258.4
-9821.9
-8708.7
-4334
1656.1
7008.8
9718.7
8778.5
4547.1
-1391.2
-6815.7
-9692.5
-8935.7
-4824.6
1092.9
6584.6
9585
8976.8
5002.9
-838.62
-6361.9
-9504.7
-9091.4
-5272.6
524.64
6127.8
9436.9
9215.6
5550.1
-191.97
-5874.4
-9378.9
-9384.5
-5865
-121.81
5684.6
9348.6
9472.7
6012.9
290.38
-5529.5
-9268
-9543.8
-6269.7
-672.2
5160.8
9047.4
9524.1
6403.2
851.59
-5048.5
-9089
-9765.9
-6837.8
-1412.2
4465.2
8570.3
9339.4
6470.6
1045.9
-4886.9
-9104.2
-10043
-7360.1
-2020.4
4067.4
8733.4
10318
8287.8
3476.4
-2194.7
-6445.4
-7550.2
-5037.4
134.76
5985.5
10296
11436
8932.5
3624.9
-2629.9
-7601.3
-9491.9
-7624.9
-2731.5
3308.5
8188.2
10060
8225.4
3378.2
-2675.4
-7685.5
-9784.8
-8183.5
-3479.7
2551.5
7627.9
9835
8353
3752.9
-2238.3
-7389.8
-9788.1
-8535.9
-4089.2
1896.8
7174.1
9749.7
8647.9
4285.1
-1695.1
-7050
-9780
-8868.7
-4655.7
1286.1
6729.3
9625.3
8882.6
4785.3
-1116.8
-6603.6
-9625.8
-9064.5
-5134
704.73
6280.7
9509.4
9169
5370.3
-469.36
-6155.1
-9547.7
-9375.7
-5711.5
65.553
5792.7
9329.9
9354.3
5853.5
135.97
-5653.7
-9339.8
-9537.2
-6174.8
-517.74
5312.3
9133.2
9514.5
6309.3
711.39
-5185.7
-9169
-9738.9
-6677
-1130.8
4819.3
8943
9695.1
6793.5
1325.2
-4657.3
-8903.9
-9815.5
-7051.4
-1658.7
4328.7
8663
9728.6
7138.2
1866.8
-4117.3
-8581.7
-9855.4
-7451.9
-2258.8
3785
8411.9
9880.8
7636.5
2522.1
-3538.4
-8266.3
-9886.5
-7794.2
-2778.9
3275.9
8102.7
9899
7997.8
3113.6
-2923.8
-7849.9
-9811.1
-8064.1
-3262.5
2787.1
7809.5
9924.8
8353.8
3698.8
-2294.1
-7388.3
-9680.3
-8300.7
-3743.6
2299.6
7559.4
10044
8807.8
4319
-1718.3
-7023.9
-9611.2
-8527.4
-4193.7
1764.6
7124.6
9885.7
9012
4823.9
-1114.2
-6577.2
-9516.2
-8830
-4776.1
1128.4
6673.9
9780
9272.1
5327.7
-580.27
-6232.4
-9502.3
-9165.5
-5360.9
469.84
6134.9
9516.5
9356.2
5717.5
-39.989
-5764.2
-9311.5
-9350.8
-5866.1
-164.01
5616.8
9307.9
9520.2
6163.3
483.14
-5395.9
-9264.4
-9663.4
-6442.8
-820.63
5084.7
9061
9632.1
6597.5
1093.7
-4829.6
-8961.9
-9748.3
-6877.7
-1417.4
4575.9
8835.7
9754.1
6993.9
1606.5
-4379.8
-8726.7
-9816.2
-7243.8
-1967
4044.4
8537.6
9821.1
7407.3
2201.9
-3838.5
-8445.9
-9894
-7642.7
-2537.1
3508.3
8225.1
9841.8
7752.7
2748.3
-3285.1
-8081.5
-9848.2
-7932.2
-3055.6
2959.1
7865.1
9824.5
8094.7
3314.8
-2725.4
-7755.3
-9882.5
-8310.1
-3634.3
2386.1
7494.7
9781
8391.1
3845
-2154.4
-7355.4
-9802.3
-8573.5
-4131.2
1854.9
7139
9743.7
8697
4390.9
-1565.2
-6942.2
-9722.7
-8858.7
-4671.5
1266.2
6723.8
9655
8965.8
4918.5
-972.76
-6507.9
-9617.8
-9133.7
-5228
641.74
6273.8
9550.7
9240.2
5461.2
-363.94
-6048.4
-9461.7
-9325.9
-5690.7
83.316
5832
9396.8
9436.5
5932.7
197.17
-5622.3
-9346.6
-9579.8
-6229.3
-544.55
5344.5
9221.6
9621
6387.8
742.41
-5183.2
-9158.2
-9697
-6610.6
-1064.6
4865.9
8969.2
9714.9
6820.8
1363.5
-4616.7
-8876.9
-9816.8
-7083.6
-1704.3
4303.4
8689.4
9810.6
7243
1942.6
-4105.2
-8626.4
-9916.4
-7490
-2267
3781.4
8384.5
9827.8
7586.4
2509
-3503.9
-8205.5
-9835
-7777.8
-2802.4
3222.9
8034.6
9829.4
7940.1
3077.3
-2945.1
-7885.7
-9902.4
-8233.7
-3488.2
2567.4
7659.9
9865.3
8345
3671.6
-2388.8
-7552
-9882.6
-8518.1
-3981.5
2024
7253.5
9753.7
8588.6
4189.9
-1799.1
-7133.6
-9809.6
-8819.1
-4531.8
1444.1
6868.6
9711.3
8910.4
4766.8
-1169.1
-6675.5
-9687.5
-9072.2
-5057.7
848.34
6426.1
9581
9132.9
5256.1
-590.83
-6214.8
-9508.2
-9236.2
-5499.6
300.07
5984.6
9419.1
9315.9
5716.4
-30.04
-5773.9
-9367.2
-9461.3
-6012.4
-308.08
5504.7
9227.4
9450
6094.9
443.63
-5364.9
-9154.5
-9525.1
-6354.9
-826.85
5012
8993.9
9623.3
6641.4
1146.1
-4801.2
-8951.5
-9731.8
-6849.1
-1396.5
4572.8
8824.3
9772.6
7063.7
1703.3
-4310.1
-8722.8
-9871.2
-7317
-2022.2
4014
8517.6
9803.7
7406.9
2243.1
-3747.1
-8327.1
-9794.5
-7607.8
-2585.2
3396
8092.7
9732.1
7680.6
2690.1
-3377.5
-8252.2
-10115
-8283.3
-3463.3
2523.7
7425.8
9399.6
7697.9
2956.7
-3029.3
-7971.3
-9950.7
-8151.2
-3166.6
3235.2
8786.9
11559
10646
6471.3
624.08
-4704.4
-7513.6
-6744.6
-2709.9
2997.5
8110.8
10581
9384.3
4912.4
-1194.6
-6683.7
-9535.6
-8711
-4536.9
1407.3
6874.6
9797.3
9075
4988.4
-919.91
-6439.7
-9521.2
-9026.1
-5139.5
694.89
6296.8
9554.3
9223.9
5415.5
-439.24
-6132.7
-9524.7
-9350.6
-5687.1
86.979
5808.5
9334.6
9341.3
5823
99.791
-5678.2
-9343.2
-9525.1
-6161
-512.85
5305.9
9115.6
9483.1
6262.5
658.34
-5221.8
-9163.9
-9686
-6596.5
-1059.4
4848.8
8918.2
9628.7
6716
1271.3
-4665.1
-8867.9
-9762.3
-7013.3
-1650.1
4319.5
8655.4
9721.1
7102.3
1774.6
-4254.8
-8707.9
-9908.9
-7421.7
-2201.5
3786.7
8316
9718.3
7484
2441.1
-3541.7
-8232.4
-9862.7
-7802.3
-2814.3
3224.3
8035
9803.3
7862.8
2941.7
-3111.8
-8021.4
-9938.6
-8143.8
-3321
2706.7
7675.9
9738.7
8143.8
3496.7
-2474.3
-7550.4
-9831.5
-8442.6
-3880.6
2149.9
7373.2
9813.4
8553.1
4076.6
-1927.7
-7210.4
-9798.1
-8721
-4374.7
1618.3
7008.1
9768.2
8868.9
4666.6
-1242.8
-6639.3
-9511.3
-8794
-4753.9
1109.3
6609.5
9682.7
9166.5
5248.3
-600.45
-6181.4
-9400.7
-9051
-5256.7
572.06
6257.7
9662.7
9496.1
5813.7
5.231
-5735.6
-9250.1
-9229.5
-5693.9
28.503
5799.1
9457.7
9624.3
6225.3
535.77
-5297.3
-9076.2
-9392.4
-6149.4
-577.01
5243.7
9149.8
9682.3
6622.2
1089.4
-4851.9
-8960.1
-9677.4
-6735.8
-1258.5
4682.6
8861.2
9725.9
6961.1
1595
-4374.8
-8713.3
-9783.2
-7173.6
-1866.3
4137.2
8581.2
9807.2
7364.7
2166.4
-3850.8
-8437.4
-9865.6
-7588.1
-2460.8
3576.6
8248
9811.7
7708.4
2744
-3230.3
-8001
-9792.9
-7920
-3059.2
2974
7895.8
9829.6
8037.9
3205.7
-2833.9
-7809
-9864
-8240.6
-3548.7
2460.5
7540.1
9784.7
8349.9
3774.5
-2223
-7396
-9812.4
-8571.3
-4134.2
1843.7
7123
9714
8632
4279.9
-1698.5
-7046.3
-9753.9
-8815.2
-4594.2
1323.9
6728
9601.5
8870.7
4807.7
-1066.7
-6550.5
-9588.8
-9045.3
-5126.3
700.9
6257
9461.8
9110.1
5327
-472.68
-6111.3
-9469.5
-9286.7
-5633.5
119.09
5816
9321.6
9315.1
5788.2
59.132
-5714.9
-9352.5
-9482
-6064.5
-400.89
5375.1
9106.3
9412.8
6190.1
639.47
-5173.7
-9077.5
-9600.2
-6530.7
-1011.8
4883.3
8935.4
9620.7
6684.7
1232.8
-4689.5
-8863.6
-9725.2
-6949.8
-1577.1
4376.1
8672.7
9697.8
7067
1768.4
-4211
-8631.9
-9840.6
-7386.1
-2186.5
3813.7
8371.1
9780.5
7512.7
2412.4
-3614
-8309
-9907.8
-7802.8
-2778
3281.2
8096.1
9854.7
7896.3
2960.4
-3093.5
-7988.9
-9889.2
-8088.1
-3271.6
2744.7
7703.3
9752.9
8137
3468.4
-2506.3
-7557.6
-9799
-8387.5
-3841.9
2142.4
7321.5
9744.8
8494
4033.7
-1961.8
-7239.4
-9816
-8723.7
-4373.1
1601.6
6957.4
9686.6
8771
4561.8
-1357.6
-6768.3
-9646
-8914.4
-4846.8
1034.2
6522.7
9557.4
8999.8
5065.3
-761.73
-6293
-9461.4
-9089
-5317.5
449.05
6061.5
9417.7
9246.8
5596.1
-172.68
-5890.6
-9404.2
-9394.8
-5874.3
-170.34
5579
9225
9404.9
6049.1
413.2
-5384.4
-9158.4
-9486.7
-6252.1
-681.55
5127.1
8998.8
9489.8
6415.4
915.32
-4963.1
-9018.7
-9720.1
-6792.1
-1330.8
4608.1
8792.8
9660.4
6898.4
1550.2
-4381.4
-8678.5
-9728.4
-7127.7
-1842.6
4143.8
8576.4
9784.2
7314.7
2101.3
-3895.2
-8426.9
-9800
-7504
-2400.6
3597.8
8243.8
9797.7
7680.4
2686.9
-3314.2
-8080.3
-9828.1
-7898.1
-3004.9
3020.4
7910.8
9818
8018.7
3192.3
-2838.5
-7804.2
-9845.9
-8208.1
-3511.5
2484.6
7538.4
9759.7
8316.6
3750.6
-2224.8
-7369.2
-9757.9
-8501.1
-4069.6
1884.6
7141.5
9732.2
8671.8
4337.4
-1657.9
-7060.1
-9827.5
-8912.3
-4664.2
1305.5
6743.8
9612.7
8852.8
4767.9
-1102
-6562.5
-9582.7
-9046.6
-5166.2
595.7
6066.4
9173.3
8726
4874.2
-942.07
-6537.3
-9814
-9553.6
-5857.8
-84.004
5675.9
9363
9689.6
6606.8
1342.4
-4023.8
-7332
-7192.8
-3568.3
2186.5
7863
11285
11151
7494.1
1620.1
-4395.4
-8441.3
-9102.3
-6166.9
-739.63
5125.5
9181.1
9857.1
6882.8
1388.8
-4549.6
-8716.4
-9580.7
-6841.3
-1522.6
4397.1
8701.4
9758.1
7147.8
1842.5
-4156.1
-8585.4
-9786.7
-7325
-2135.1
3839
8368.2
9760.5
7490.2
2401
-3602.5
-8269.6
-9852
-7760.9
-2781.6
3223.6
8008.3
9774.5
7845.1
2928.4
-3134.3
-8058.1
-9984.4
-8191.1
-3363.4
2676.8
7666.1
9747.1
8153.1
3486.6
-2507.2
-7587.5
-9854.8
-8461.9
-3932.5
2037.7
7216
9665.5
8464.3
4052.3
-1924.8
-7223.3
-9844.8
-8797.8
-4478.5
1483.1
6848.4
9617.5
8769.7
4630
-1258.1
-6701
-9661.7
-9020.4
-5006.4
874.81
6405.1
9497.4
8989.1
5078.8
-756.22
-6322
-9532.1
-9188.2
-5427.1
335.54
5941.9
9303.3
9176.1
5613
-64.342
-5749.9
-9321.6
-9425.9
-5997.5
-310.37
5487.5
9193.9
9405.3
6055.6
425.75
-5361
-9143.8
-9519.5
-6350
-811.34
5032.4
8991
9573.8
6562.1
1095.9
-4764.8
-8824.9
-9573.9
-6736.1
-1363.6
4549.1
8793.3
9765.7
7083.3
1747.9
-4222.3
-8565.5
-9643.2
-7060.1
-1798
4167.6
8610.4
9877.5
7498.5
2363.5
-3603.7
-8161.9
-9596.3
-7365.8
-2306.3
3685.9
8365.4
9976.4
7908.6
2929.2
-3098.8
-7913.7
-9707.7
-7811
-2941.5
3069.7
7969
9923
8199.9
3443.1
-2565.9
-7571.5
-9692.7
-8133.7
-3484.7
2503.2
7579.6
9837.3
8423.2
3857.4
-2155.6
-7360.4
-9799.7
-8557.3
-4106.6
1874.3
7143.4
9736.4
8691.6
4396.9
-1551.9
-6933.6
-9723.1
-8859
-4661.2
1280.4
6715.7
9600.4
8868.3
4814.2
-1037.9
-6508.1
-9560.5
-9049.1
-5151.3
681.03
6255.3
9469.8
9117.9
5343.1
-429.62
-6041.7
-9405.5
-9267.7
-5668
63.637
5783.2
9328.6
9346.7
5824.6
99.977
-5659.1
-9290
-9449.5
-6099.1
-500.28
5259.7
9034.5
9409.4
6232.9
687.2
-5146
-9069.7
-9605.8
-6554.5
-1064.2
4806.4
8861.9
9587.8
6713.1
1313.1
-4589.2
-8778
-9677.7
-6949.4
-1619.5
4307.2
8604.6
9663.4
7093.5
1864.9
-4061.4
-8469.8
-9717
-7339.5
-2223.3
3724.8
8281.2
9731.4
7515
2447.8
-3572.5
-8278.3
-9894.6
-7815.2
-2829.2
3185.9
7977.3
9758.9
7869.5
3014.4
-2994.5
-7907.4
-9875.9
-8153.5
-3385.3
2633.1
7637.9
9755.4
8202.1
3566.9
-2417.6
-7520.9
-9838.4
-8497.3
-3988.6
2006.3
7238.5
9739.3
8566.4
4162.3
-1816
-7124.3
-9775.7
-8782
-4519.5
1413.6
6794.4
9606.5
8796.7
4671.6
-1216.3
-6653
-9597.4
-8948.3
-4955.2
880
6371.1
9467.3
9016.9
5192.9
-574.01
-6128.2
-9390.2
-9132.9
-5446.1
290.26
5919
9319
9208.1
5629.1
-69.7
-5747.3
-9276.9
-9340.5
-5916
-282.15
5456.8
9152.4
9413.7
6131.4
526.38
-5302.7
-9167
-9613.3
-6473
-925.56
4946.8
8942.9
9567.9
6591.8
1132.7
-4762.9
-8885.9
-9692.2
-6880
-1503.4
4422.1
8674
9656.6
6999.9
1700.3
-4252.1
-8621.6
-9767.4
-7261.1
-2046
3920.2
8401.5
9719.9
7381.2
2258.4
-3732.2
-8344.5
-9843.5
-7660.5
-2613.7
3397.8
8112.3
9762.3
7739.3
2815.1
-3158.6
-7948
-9768
-7940.4
-3144.2
2832.8
7752.9
9763.3
8097
3371.6
-2637.2
-7667.2
-9827.2
-8309.9
-3688.9
2304
7428.4
9768.3
8444.9
3949
-2033.8
-7251.8
-9739.3
-8566.2
-4189.8
1728.1
6961
9557.1
8560.8
4355.2
-1485.6
-6778.7
-9541.5
-8735.1
-4661.7
1145.2
6503.2
9406.5
8776.3
4853.4
-899.35
-6337.9
-9426.1
-8994.5
-5191.5
556.43
6078.3
9290.3
8993.1
5317.1
-346.33
-5880.8
-9229.3
-9145.1
-5650.6
-41.811
5578.8
9089.8
9163.9
5779.1
219.7
-5426.1
-9056.4
-9326.4
-6129.9
-638.74
5109.7
8952.2
9416.2
6302.9
784.68
-5045.8
-8991
-9590.5
-6654.8
-1310.9
4429.9
8412.1
9132.7
6310.9
1009.6
-4766.3
-8845.1
-9718
-7083.1
-1912
3936.5
8380.6
9838.7
7802.6
3071.1
-2488.1
-6632.5
-7651.9
-5089.7
71.68
5839.8
10028
11078
8583.4
3391.9
-2695.1
-7524.1
-9345.5
-7486
-2657.8
3278.8
8039.1
9814.2
7954.1
3173.9
-2749.8
-7635
-9672.2
-8082.4
-3434.4
2530.1
7543.3
9696.4
8189.9
3624.8
-2263
-7279.4
-9577.1
-8307.7
-3925.5
1957
7138.1
9648.9
8522.4
4182.5
-1721.4
-6963.4
-9590.8
-8639.3
-4467.8
1379.4
6726.8
9560.7
8791
4688.1
-1200.9
-6645.6
-9595.2
-8957.4
-4990.4
816.49
6302.6
9426.8
9016.6
5212.5
-566.26
-6144.3
-9416.3
-9152.1
-5461.4
260.27
5867.7
9269.2
9198.9
5682
27.932
-5652.7
-9233.7
-9370.9
-6006.6
-392.78
5375.1
9135.1
9465.1
6222.8
615.12
-5245.6
-9143
-9608
-6478.8
-949.6
4898.6
8885.5
9534.1
6604.8
1182.8
-4712
-8866.9
-9709.1
-6912.7
-1530.7
4408.9
8679.3
9690.8
7072.3
1797.3
-4173.8
-8608.2
-9829.1
-7358.7
-2121.1
3900.2
8427.8
9769.8
7455
2383.4
-3537.5
-8107.3
-9632.7
-7540.7
-2596
3362.7
8096.2
9810.3
7847.9
2946.3
-3045.6
-7874.2
-9730.2
-7919.1
-3113.5
2898.2
7872.2
9944.8
8335.4
3646.8
-2357.5
-7419.5
-9639.6
-8187.4
-3606.7
2391.3
7565.2
9975
8708.8
4234.1
-1766.2
-7023.9
-9550.1
-8396.7
-4015.1
1928.4
7198.1
9833.9
8871.7
4682
-1177.8
-6534
-9388.7
-8660.6
-4604.2
1262.4
6718.9
9690.7
9051.3
5052.3
-785.63
-6266.3
-9348.6
-8897.8
-5092
649.57
6185.7
9441
9182.3
5492.5
-250.83
-5893.4
-9320.2
-9250.8
-5713.9
-30.73
5676
9266.3
9381.8
5964.6
294.64
-5488
-9200.5
-9453.5
-6172.7
-609.25
5148.8
8960.4
9416.2
6350.9
904.3
-4890.8
-8859.6
-9504.1
-6576.9
-1180.2
4654.3
8736.1
9536.3
6753.1
1419.9
-4474.4
-8720.4
-9716.4
-7082.2
-1812.8
4099.8
8432.3
9577.3
7135.9
2043.5
-3796.2
-8215.5
-9571
-7346.3
-2356.8
3532.8
8097.3
9599.9
7466.4
2509.3
-3392
-8018
-9647.1
-7685.4
-2868.9
3015.7
7784.1
9651.6
7898.3
3155.7
-2808.8
-7748.9
-9794
-8168.5
-3488.7
2478.4
7489.7
9670
8207.3
3648.8
-2303
-7419.8
-9778
-8484.7
-4022.6
1928.5
7129.6
9633.6
8515.7
4209.1
-1670.6
-6931.9
-9615.9
-8716.7
-4557.7
1315.7
6701.6
9565.5
8815.5
4727
-1157.6
-6616.4
-9594.6
-8980.8
-5018.4
795.46
6279.5
9386.8
8966.9
5189.5
-525.84
-6042.5
-9301.5
-9083.7
-5462.7
217.18
5833.4
9272.9
9229.7
5707.8
29.782
-5664
-9231.5
-9341.3
-5966.1
-378.66
5332
9035.9
9346.3
6134.9
590.92
-5210.1
-9082.6
-9563.9
-6475.7
-988.79
4831.4
8811.3
9478
6593.5
1232.7
-4611.7
-8759.2
-9651.2
-6943.4
-1648.4
4242.4
8515.6
9575.1
7035.4
1851.8
-4042.4
-8450.1
-9718.5
-7357.3
-2239.8
3707.6
8230.2
9613.7
7347.8
2314.6
-3566.8
-8084.1
-9561.4
-7467.3
-2592
3250.1
7884.6
9574.7
7670
2863.4
-3054.6
-7862.3
-9746.7
-7991.6
-3250.9
2698
7622.8
9675.3
8084.2
3445.8
-2500.2
-7523.4
-9741.5
-8325.5
-3808.5
2117.9
7237.7
9637.2
8416.2
4024.5
-1901.9
-7145.1
-9733.1
-8682.6
-4377.2
1569.4
6919.4
9657.4
8753.8
4552.2
-1364.9
-6775.5
-9653.6
-8925.9
-4869.7
992.05
6460
9481.4
8921.5
4993.9
-817.75
-6319.6
-9439.6
-9011.5
-5211.8
517.47
6022.1
9249
9008.7
5404.7
-216.2
-5766.6
-9184.3
-9188.7
-5758
-151.7
5541
9175.2
9363.9
6016.5
385.88
-5405.3
-9174.4
-9508.4
-6293.1
-747.57
5040.4
8898.6
9384.3
6324.8
881.93
-4890.5
-8827.5
-9470.6
-6605.9
-1328.3
4378.4
8376.1
9154.7
6391.5
1085.2
-4794.4
-9036.8
-10032
-7395
-2107.1
3870
8351.2
9742.8
7615.9
2850.8
-2683.3
-6808.2
-7853.1
-5316.2
-95.198
5840.2
10222
11377
8866.3
3608.8
-2499
-7293.3
-9104.3
-7330.6
-2655.6
3171.4
7948.1
9837.7
8085.3
3330.1
-2634
-7556.9
-9597.3
-8010
-3405.9
2488.3
7470.1
9672.5
8260.1
3752.7
-2160.3
-7255.2
-9619.5
-8374.9
-3999.9
1860.1
7013
9534.5
8480.7
4242.9
-1593.3
-6838.6
-9525.3
-8650.4
-4549.9
1235.7
6542.8
9388.9
8706
4739.7
-1030.2
-6433.3
-9426.5
-8878.3
-5006.6
711.26
6118.7
9205
8849.2
5210.2
-353.55
-5784.7
-9069.5
-8971.6
-5502.4
58.484
5624.1
9086.9
9128
5726.2
164.38
-5462.6
-9039.9
-9224.6
-5945.9
-432.54
5244.8
8950.6
9291
6141.2
689.1
-5017.6
-8842.8
-9358.8
-6374.4
-1004.5
4741.8
8708.9
9402.3
6554.3
1229.1
-4577.6
-8689.2
-9564
-6869.3
-1606.3
4260.7
8534.3
9607.4
7074.1
1889.3
-3991.6
-8354.7
-9565.9
-7179
-2093.5
3787.9
8266.5
9662.1
7440.8
2424.9
-3505.3
-8116.6
-9670.6
-7584.3
-2646.4
3290.2
8008.7
9754
7880.6
3089.9
-2824.6
-7642.1
-9547
-7819.5
-3112.8
2795.4
7679.8
9709.3
8129.8
3539
-2341.7
-7308.8
-9497.8
-8080.7
-3580.2
2324.2
7425.5
9816.9
8603.8
4235.8
-1658.9
-6875.9
-9454.9
-8417.2
-4142.5
1766
7085.6
9815.8
8932.8
4769.1
-1117.6
-6528.9
-9442.4
-8764.6
-4744.3
1110.2
6591.7
9628.7
9075.1
5145.4
-672.72
-6190
-9343.5
-8964.7
-5206.2
522.35
6080.4
9390.6
9212.2
5606.1
-83.636
-5729.7
-9217.9
-9239.8
-5784.8
-145.12
5566.6
9207.2
9405
6075.9
459.16
-5341.8
-9146.9
-9521.4
-6323.1
-759.77
5067.8
8965.9
9479.4
6432.7
981.26
-4834.5
-8851.2
-9576.5
-6733.3
-1367.2
4526.6
8732.5
9647.3
6903.1
1525.6
-4449.5
-8760.2
-9788
-7166.8
-1901.6
4028.3
8414.8
9633.8
7238.4
2123.5
-3799.1
-8306.7
-9700.8
-7453.1
-2409.6
3531.3
8140.9
9698.4
7629.9
2713.6
-3214.3
-7940.4
-9695.1
-7813.7
-2992.4
2965
7821
9746.6
8013
3267.7
-2709.2
-7674.9
-9767
-8202.8
-3572.2
2385
7433.8
9682.7
8292.1
3786.4
-2142.8
-7271.3
-9675
-8453
-4065.9
1838
7045.3
9608.8
8573.8
4328.1
-1546.8
-6862.4
-9631.6
-8807.6
-4683.7
1200.9
6628.9
9543.6
8838.1
4783.4
-1078.2
-6529.1
-9524
-8957
-5061.4
693.65
6158.2
9299.7
8953.4
5252.4
-420.01
-5943.4
-9250.4
-9099.6
-5540.4
103.32
5724
9214.4
9254.2
5811
163.89
-5568.1
-9223
-9419.4
-6085.5
-485.2
5267.5
9013.8
9360.7
6192.1
700.52
-5061.8
-8943.6
-9491.5
-6493.7
-1067.2
4754.8
8784.8
9508
6654.5
1299.2
-4546.5
-8691.3
-9583.9
-6891.6
-1625.4
4237.1
8494.8
9553
7025
1873.3
-3961.6
-8296.2
-9518.9
-7181.6
-2158.4
3677.9
8144.8
9559.6
7376.1
2405
-3481.5
-8058.8
-9601.4
-7538.8
-2661
3194.8
7842.1
9555.9
7703.4
2973
-2875.9
-7658.9
-9579.5
-7908.9
-3269.7
2594.2
7476.6
9543
8019.5
3481.3
-2365
-7321.4
-9524.6
-8148.1
-3713.5
2110.7
7142.6
9506.1
8323.5
4032.5
-1777.9
-6947.4
-9537.5
-8558.8
-4359.3
1487.1
6772.3
9500.1
8651.1
4561.9
-1219.5
-6526.9
-9382.2
-8721.3
-4785
961.25
6363.7
9386.8
8890.3
5067.2
-633.6
-6068
-9209.2
-8896.7
-5251.9
373.34
5887.2
9220.4
9099.1
5541.9
-122.97
-5752.6
-9213.2
-9202.7
-5741.6
-145.98
5484.6
9055.2
9243.2
5979.8
477.58
-5209.5
-8946.5
-9323.6
-6196.7
-746.39
4974.8
8823.1
9367.1
6411.5
1058.7
-4700.6
-8717.6
-9479
-6678.1
-1347.3
4514.6
8692.9
9601.3
6890.3
1581.2
-4324.3
-8604.3
-9654.1
-7086.4
-1872.5
4026.4
8396.7
9602.1
7192.9
2069.5
-3857.6
-8380.7
-9816.4
-7636.3
-2670.6
3197.8
7743
9245
7145.5
2251.1
-3587.2
-8180.8
-9810.9
-7840.8
-2930.1
3203.1
8389.1
10786
9568.7
5267.8
-407.35
-5220.7
-7289.6
-5824.5
-1421.1
4197.7
8860
10761
9118
4455.1
-1579.6
-6801.4
-9293.8
-8140.9
-3794.6
2085.1
7263.4
9781.8
8690.8
4393
-1514.8
-6830.8
-9561.4
-8670.5
-4484.9
1414.6
6794.5
9627.3
8862.7
4807.2
-1016.4
-6448.9
-9484.7
-8996
-5147.9
643.09
6212.4
9452.6
9122.7
5337.3
-471.66
-6108.3
-9454.7
-9267.3
-5630.8
87.294
5750.5
9245.3
9265
5798.9
140.71
-5592.8
-9252.9
-9463.8
-6139.1
-517.79
5293.8
9108.6
9483.6
6272.5
686.7
-5165
-9080.2
-9596.7
-6533.3
-1044.1
4821.7
8879.5
9612.9
6737.2
1315.3
-4625.6
-8850
-9763
-7021.3
-1664
4288.1
8601.6
9667.5
7094.4
1847.9
-4109.2
-8544.1
-9788.2
-7369.6
-2197.8
3778.2
8311.1
9706.5
7455.9
2415
-3526.1
-8149.1
-9729.2
-7673.1
-2743.6
3218.9
7980.1
9748.8
7852.6
2994.1
-3009.4
-7904.4
-9846.1
-8095.9
-3306.8
2715.8
7697.5
9761.7
8143.8
3473.7
-2476.8
-7472.6
-9652.2
-8210.5
-3686.9
2236.9
7353.9
9746.1
8502.6
4073
-1888.9
-7142.4
-9706.4
-8611.3
-4265.9
1699.4
7049.3
9785
8893
4721.3
-1156.3
-6534
-9399.7
-8683.4
-4651.7
1192.3
6665
9711.4
9175.3
5243.2
-612.58
-6183.4
-9363.6
-8955.3
-5120.9
688.05
6289.5
9592.4
9370.1
5707
-35.318
-5719
-9219.7
-9220.9
-5715.7
-18.486
5725.7
9351.6
9492.8
6096.8
441.34
-5349.3
-9105.4
-9425.7
-6199.8
-643.77
5159.9
9041.1
9549.9
6495
1017.5
-4830.6
-8852.7
-9536.9
-6631
-1238.3
4607
8712.9
9550.7
6814.7
1526.1
-4346.2
-8608.4
-9653.7
-7073
-1825.1
4115.4
8507.9
9701.7
7257
2099.3
-3839
-8339.2
-9716.4
-7447.4
-2378.4
3581.4
8182
9696.5
7579.8
2656.3
-3218.1
-7863
-9568
-7699.9
-2931.8
2980.6
7821.5
9742.3
7987.6
3214.1
-2756.2
-7653
-9639.6
-7996.3
-3358.8
2541.2
7512.8
9698.4
8259.4
3709.5
-2251.5
-7372.8
-9719.6
-8419.5
-3983.6
1910.6
7064.6
9571.2
8505.5
4259.6
-1591.1
-6859.2
-9560.1
-8668.8
-4515.6
1338.7
6696.9
9550.8
8826.6
4783.1
-1076.9
-6555.7
-9582.2
-9005.3
-5042.2
802.79
6322.4
9450.8
9034.2
5243.9
-501.29
-6060.5
-9356.8
-9148.8
-5505.8
206.35
5837.5
9270.9
9222.9
5716.7
62.348
-5633.4
-9242.6
-9402.4
-6033
-385.72
5415
9176.5
9478.7
6214.9
623.28
-5191
-9049.8
-9512.3
-6408.6
-904.28
4933.3
8912.3
9544.8
6604.9
1203.1
-4640.4
-8749.9
-9592.5
-6839.9
-1500.3
4436.2
8729.1
9739
7068.8
1727.8
-4258.5
-8633.3
-9766.2
-7252.8
-2045.4
3910.6
8393.8
9725.1
7397.5
2279.1
-3704.4
-8299
-9782.3
-7611.2
-2611.1
3349.5
8057.9
9766
7825.7
2933.7
-3106.1
-8035.1
-9984
-8194.6
-3327.8
2776.3
7804
9858.3
8181.6
3430.8
-2588.8
-7616.1
-9780.2
-8288.5
-3708.1
2249.3
7359.8
9708.5
8404.4
3923
-2061.1
-7299
-9818.2
-8670.9
-4291.8
1672.4
6986.4
9664.5
8708.8
4480.7
-1433.5
-6814
-9639.9
-8851.6
-4748.8
1125.4
6567.4
9537.2
8916.6
4926.8
-946.83
-6501.1
-9641.1
-9177.8
-5286.2
563.27
6172.7
9451.6
9192.3
5500.6
-254.89
-5942.4
-9440.3
-9421.1
-5865.1
-93.979
5715
9361.5
9472
6021.3
325.74
-5472
-9210
-9503.4
-6248.2
-658.8
5175.8
9066
9545.5
6430.5
893.25
-4982.1
-8989.2
-9628.7
-6666.8
-1216.7
4679.5
8813.1
9633.6
6829.2
1447.1
-4495
-8763
-9747.3
-7073.9
-1750.9
4210.7
8562.9
9675.6
7148
1943.7
-3986.6
-8437.8
-9758.3
-7450.1
-2354.8
3639.9
8286.4
9820.4
7645.2
2577.4
-3460.8
-8185.3
-9826.1
-7788.9
-2858
3114.2
7899.7
9716.1
7884.4
3085.6
-2887.5
-7799.6
-9811.5
-8170.9
-3493.5
2464.7
7456.6
9583
8014.8
3322.9
-2728.1
-7858.9
-10155
-8790.2
-4302.1
1645.5
6894.6
9565.4
8719.8
4713.1
-892.63
-5870.9
-8178
-6784.6
-2123.9
4068.1
9454.7
12021
10822
6290.2
40.221
-5715.9
-8944.1
-8516.4
-4643.4
1173.2
6694.7
9805.2
9327.5
5455.4
-351.16
-5935.2
-9239
-9045.5
-5421.4
289.64
5943.7
9395.7
9325.1
5754.7
41.063
-5656.1
-9203
-9289.5
-5902.1
-314.98
5385.8
9074.1
9373
6171.3
666.03
-5085.6
-8936.1
-9446.6
-6421.3
-984.32
4829.7
8830.3
9497.9
6568.6
1144
-4727.7
-8833.6
-9634.8
-6838.5
-1497.8
4386.9
8613.3
9598.7
6976.3
1736
-4149
-8472
-9623.3
-7183.9
-2067.9
3822.6
8294.4
9666.3
7399.6
2321
-3666.1
-8297.6
-9820.1
-7668
-2669
3290.4
7986
9678.3
7740
2882.2
-3095.4
-7954.5
-9853.7
-8059.3
-3242.5
2773.1
7716.9
9742
8112.7
3460.1
-2469.3
-7462.5
-9655
-8223.2
-3701.8
2208.4
7281.7
9614
8341.3
3953.3
-1904.3
-7047.3
-9557.2
-8486.7
-4218.5
1660
6937.5
9612.4
8662.2
4439.9
-1460.9
-6818.2
-9623.6
-8832.3
-4743.9
1114.8
6559.8
9561.2
8999.9
5086.7
-715.13
-6235.6
-9406.1
-9029.9
-5231.8
579.11
6225.5
9575
9351.6
5631.9
-175.73
-5870.8
-9306.1
-9204.2
-5626.4
71.749
5763
9339.7
9484.2
6147.1
566.79
-5178.7
-8935.3
-9278.4
-6058.6
-473.39
5375
9274
9744.4
6605
1040.8
-4851.7
-8861.1
-9493
-6522.5
-1068.9
4827
8961.7
9786.3
6984.4
1596.9
-4360
-8650
-9661.1
-7016.9
-1716.5
4246.1
8634.4
9805.3
7319.7
2105.7
-3886.4
-8410.4
-9767.8
-7449
-2326
3677.7
8311.6
9839.5
7683.2
2637.7
-3418.2
-8215.3
-9943.2
-7941.5
-2961.6
3115.1
7997.6
9859
8019.4
3183.8
-2836.6
-7800.1
-9858.6
-8239.5
-3541
2477.4
7549.5
9761.8
8284.2
3683.1
-2303.9
-7430.7
-9782.6
-8482.1
-4010.8
1964.1
7202.1
9727.6
8582.1
4197.7
-1766.3
-7061
-9705.2
-8724.4
-4498.9
1392.8
6760.6
9604.7
8851.7
4761.5
-1151.2
-6671.2
-9714.8
-9126.4
-5123.4
785.87
6378.5
9559.3
9146.3
5306.9
-511.79
-6127.3
-9437.9
-9207.5
-5526.5
223.02
5885.4
9337.4
9281.8
5732.2
11.509
-5738.8
-9358.7
-9482.7
-6058.5
-370.37
5445.9
9210.4
9518.9
6264.6
669.94
-5174
-9084.8
-9597.9
-6513.2
-977.84
4933.4
8993.4
9666.5
6696.5
1206.6
-4730.4
-8882.8
-9702.5
-6898.2
-1531.6
4387.5
8649.2
9662.3
7044.9
1773
-4177.6
-8569.7
-9749.3
-7273.1
-2075
3890.5
8387.4
9735.9
7434.8
2344.3
-3635.7
-8271.8
-9830.2
-7726.3
-2746.1
3247.8
8013.3
9767.7
7852
2977.6
-3035.5
-7935
-9879.3
-8133.8
-3351.6
2670.6
7672.8
9783.1
8216.5
3563.2
-2433.5
-7524.7
-9794.2
-8381.5
-3815.3
2181.5
7347.7
9746.7
8495.1
4078.8
-1845.9
-7073.9
-9659.8
-8630.9
-4355.4
1573.6
6921.5
9658.6
8745.4
4534.7
-1373.5
-6755.6
-9606.4
-8876.1
-4843.2
991.76
6451.5
9483.5
8936.1
5010.9
-803.16
-6302.9
-9420.2
-9002.6
-5226.6
491.32
6026
9317.3
9123.2
5490.5
-237.12
-5907
-9373.6
-9326.7
-5793.9
-116.78
5572.4
9155.2
9305.9
5971.9
394.11
-5343.2
-9083.6
-9413
-6204
-667.18
5113.2
8971.6
9471.2
6430.5
984.49
-4833.2
-8841.7
-9529.3
-6631.9
-1240.6
4612.5
8730.6
9580.2
6853.7
1569.4
-4310.7
-8598.3
-9682.6
-7137.2
-1901.5
4055.3
8478.2
9693.7
7252.5
2091.8
-3836
-8308.5
-9661.5
-7398.1
-2366
3556.2
8154.2
9703.6
7618.3
2674.5
-3279.4
-8015
-9757.2
-7846.9
-2990.4
2998.3
7871.5
9792.1
8032.9
3258.6
-2724.5
-7657.8
-9690.8
-8078.3
-3448.8
2448.3
7407.7
9589.9
8194.3
3745.7
-2102.5
-7174.3
-9570.1
-8375
-4012.5
1896.2
7130.8
9710.5
8651.8
4347.1
-1583.6
-6909.5
-9632.3
-8735.9
-4563.3
1314.6
6688.2
9537.7
8793.3
4737.6
-1103.1
-6535.6
-9525.4
-8956.6
-5044.5
747.45
6253.7
9413.9
9042
5271.6
-492.75
-6099.9
-9454.5
-9297.3
-5676.9
58.727
5752.3
9239.5
9173
5552.9
-259.56
-6063.4
-9673
-9755.9
-6318.3
-668.09
5100.5
8883
9322.8
6300.5
991.62
-4540
-8098
-8194.6
-4651
1301.7
7479.1
11582
12076
8769
2871.4
-3468.9
-7970.4
-9058.4
-6434.8
-1171.7
4699.2
8943.9
9948.4
7311.9
1995.7
-4025.5
-8496.6
-9734.5
-7276
-2061
3931.8
8448.1
9811.8
7536.6
2481.7
-3479
-8139.9
-9762.5
-7720.2
-2753.8
3278
8090.5
9850.9
7891.1
2962.3
-3065.7
-7926.4
-9808.5
-8021.4
-3241
2743
7688.4
9736.4
8113.6
3430.6
-2548.3
-7575
-9767.4
-8312.2
-3758.7
2192.3
7322.2
9713.9
8463.8
4023.7
-1957.1
-7240.1
-9836.1
-8758.3
-4402.7
1595.9
6979.5
9722.1
8795.8
4555.7
-1400.4
-6838
-9724.3
-8984.3
-4896.6
1012
6533.6
9600.3
9057.9
5102.5
-788.61
-6408.4
-9649.1
-9293.7
-5473.3
381.77
6075.9
9471.8
9295.1
5617.1
-170.82
-5885.3
-9378.9
-9348.9
-5817.9
-114.75
5628.6
9268.3
9440.6
6069.4
404.43
-5435.4
-9252.5
-9604.5
-6356.1
-733.03
5146.6
9077
9592.6
6510.1
988.65
-4904
-8960.5
-9656.3
-6723.3
-1257.2
4690.8
8886.2
9755.7
6979.3
1606.7
-4342.4
-8637.9
-9671.9
-7055.8
-1764.1
4228.2
8680.4
9923.7
7489.5
2290.6
-3718.9
-8278.1
-9672
-7376.9
-2253.9
3778
8461.5
10043
7926
2899.4
-3152.9
-7954.2
-9695.6
-7723.1
-2784.7
3260.3
8149.7
10065
8298.5
3504.9
-2540
-7586.3
-9738.3
-8171.3
-3461.5
2615.5
7760.1
10032
8587.8
3987.3
-2040
-7248.7
-9705.4
-8494.3
-4059.4
1945
7258.9
9867.7
8777.4
4399.5
-1610.1
-6990.5
-9732
-8819.8
-4599.6
1355.1
6821
9746.9
9025
4918.3
-1031.9
-6590
-9674.4
-9137.5
-5185.7
705.43
6337.3
9597.7
9249.7
5409.2
-480.46
-6189.3
-9557.5
-9325.9
-5606.3
184.32
5876.8
9360
9347.6
5841
133.76
-5650.5
-9338.8
-9530.3
-6142.1
-450.39
5397.4
9204.2
9550.7
6316.1
710.33
-5178.1
-9151.4
-9717
-6652.6
-1102.8
4844.7
8949.8
9672.9
6754
1299.7
-4643
-8853.9
-9761.9
-7025.9
-1665.7
4310.9
8656.6
9733.4
7135
1841.8
-4154.9
-8606.6
-9850.5
-7424.1
-2232.3
3788.8
8388.7
9839.2
7585.9
2465.3
-3602.5
-8335.1
-9951.3
-7844.2
-2808.7
3260.6
8083.7
9852.4
7908.8
2991.2
-3046.4
-7936.2
-9850.7
-8084.2
-3307.1
2693.1
7678.8
9787.9
8222.1
3550.9
-2485.2
-7616.5
-9901.2
-8472.2
-3873.9
2150.3
7332.3
9740.2
8491.9
4065
-1890.7
-7158.3
-9766.2
-8723.4
-4407.3
1561.8
6929.9
9673.7
8772.4
4583.6
-1311.9
-6712.6
-9610
-8920.4
-4885.4
1002.5
6537.9
9626.9
9089.9
5123.6
-772.23
-6373.3
-9580
-9202.2
-5392.2
421.57
6065.8
9427.2
9242.9
5581.2
-178.66
-5868.2
-9352.8
-9334.8
-5831.7
-159.52
5561.5
9193.5
9374.7
6032.8
419.1
-5357.8
-9129.4
-9485.8
-6301
-769.62
5044.3
8971.4
9536.2
6509.5
1009.2
-4901.8
-8989
-9702.3
-6775.3
-1324.8
4586.9
8742.8
9603
6866.1
1566.3
-4316.1
-8587.7
-9654.5
-7115.7
-1916.1
4004.5
8434.6
9713.5
7350.5
2212.2
-3789.3
-8402.2
-9880.9
-7655.4
-2558.9
3484.5
8195.4
9807
7726.7
2746.7
-3263.4
-8054.9
-9835.8
-7937.3
-3068.6
2943.9
7842.1
9786.5
8047.4
3274.4
-2749
-7769.6
-9901.4
-8332.6
-3640.7
2412.7
7544
9819.2
8391.9
3817.8
-2171.9
-7333.4
-9748.1
-8523.9
-4117
1833.7
7104
9708.8
8654.4
4328.5
-1636.7
-6986.2
-9704.8
-8780.8
-4575.8
1328.8
6732.7
9631.8
8950.3
4933.3
-937.14
-6477.7
-9607.7
-9134
-5218.9
665.03
6290.1
9529.5
9172.6
5376.2
-414.71
-6027.6
-9375.2
-9217.9
-5611.9
107.64
5807.5
9342.9
9368.6
5862.9
145.96
-5625.3
-9283.8
-9469.7
-6126.7
-506.72
5298
9122.1
9524.2
6333.1
733.31
-5166.6
-9133.2
-9667.5
-6579.1
-1046.6
4844.2
8893
9600.6
6713.7
1313.1
-4585.4
-8775.5
-9684.2
-6966.4
-1640.2
4294.3
8607.4
9676.7
7093.6
1815.1
-4195.3
-8701.5
-10031
-7701
-2591.4
3380.8
7976.8
9466.6
7277.4
2221.5
-3789.7
-8456.6
-9965.2
-7684.7
-2402.8
3989.1
9221.3
11481
10047
5518.6
-404.8
-5525.2
-7931
-6715.9
-2356.5
3434.4
8360
10447
8828.7
4075.4
-2046
-7262.5
-9651.1
-8345.4
-3849.8
2145.2
7385
9892.6
8716.6
4295.1
-1709.3
-7039.7
-9696.3
-8686.6
-4396.5
1554.2
6921.9
9687.3
8820.4
4663.4
-1212.1
-6607.6
-9520.4
-8875.8
-4912.9
902.19
6404.3
9522.4
9059.3
5162.4
-711.89
-6346
-9611.3
-9281.5
-5490.5
332.37
6008
9419.5
9293.4
5672.9
-90.907
-5835.6
-9397.3
-9432.5
-5931.8
-222.25
5542.7
9202.4
9399
6075
481.98
-5291.2
-9092.3
-9500.1
-6352.2
-812.43
5052.5
9039.4
9637.8
6608.7
1085.5
-4849.5
-8956
-9688.4
-6780.2
-1337.7
4588
8778.1
9676
6959.9
1654
-4258.5
-8572
-9676.2
-7153.6
-1938.8
4023.6
8499
9798
7416.3
2234
-3807.1
-8433.9
-9902.2
-7659.2
-2551
3500.2
8223.1
9851.8
7786.7
2815.7
-3185.2
-7961
-9726
-7832
-3001.3
2953.4
7809.3
9755.8
8060.8
3345.2
-2636.2
-7636.7
-9761.9
-8196.6
-3526.4
2485
7577.3
9856.3
8497.2
4030.9
-1870.5
-7012.6
-9479.4
-8337.2
-3993.9
1933.9
7216.8
9857.6
8857.9
4599.1
-1307.6
-6638.2
-9393.7
-8544.6
-4411.4
1457.7
6865.2
9788
9136
5158.7
-653.84
-6130.7
-9227.5
-8784.2
-4959.6
818.17
6377.7
9620.5
9321.7
5598
-142.64
-5746.3
-9127.7
-9039.8
-5522.2
117.7
5777.2
9325.9
9404.7
5959.7
285.23
-5465.9
-9117.4
-9309.7
-6003.2
-463.16
5238.7
8994
9419.8
6355.7
929.87
-4841
-8792.7
-9430.7
-6506.3
-1117.7
4707.4
8780.5
9572.1
6779.1
1438.8
-4450.9
-8674.1
-9633.7
-6965.5
-1681.5
4221
8526.6
9637.6
7157.4
2019.7
-3864.8
-8307.4
-9643
-7355.3
-2288.8
3651.9
8221.3
9694.3
7526.6
2550.6
-3356.4
-7986.6
-9619.7
-7649.3
-2803.1
3118.1
7898.2
9730.3
7906.5
3100.5
-2878.3
-7772.8
-9739.3
-8045.2
-3336.4
2616.7
7588.4
9725.6
8232.1
3662.5
-2279.7
-7371.2
-9698.2
-8380
-3909.2
2031.1
7204.8
9671.2
8512.3
4168.4
-1735.8
-6997.2
-9648.4
-8687.4
-4461.2
1447.9
6808.6
9591.1
8750.8
4628.4
-1196.7
-6527.7
-9385.7
-8732.4
-4828.1
877.86
6271.7
9336.8
8899.3
5089.2
-678.22
-6223.6
-9440.3
-9111.7
-5373.8
354.34
5925.3
9270.9
9157.7
5629.9
-8.3084
-5663.2
-9218.7
-9329.4
-5938.6
-314.45
5423.9
9109.9
9352.1
6060
475.66
-5298.1
-9091.7
-9485.2
-6339.4
-840.2
4953.3
8881.6
9485.2
6540.3
1141.3
-4699.3
-8792.8
-9593.4
-6789.6
-1432.4
4459.6
8669.4
9621.7
6969.1
1709.1
-4194.1
-8537.8
-9693.5
-7217.2
-2029.1
3918.5
8378.8
9671.2
7325.3
2248.9
-3636.5
-8131.9
-9577.1
-7449
-2540.9
3327.8
7970
9635.3
7671.4
2790.5
-3181.1
-7989.8
-9816.2
-7973
-3163.2
2795.6
7666.5
9637.2
7991.2
3364.2
-2503.5
-7419.1
-9551.2
-8106.5
-3622.9
2226.5
7250.7
9555.4
8256.6
3823.9
-2085
-7244.8
-9707.9
-8545.9
-4200
1691.8
6919.2
9531.3
8561.2
4379.9
-1444.5
-6730.4
-9495.8
-8702.1
-4648.3
1138.8
6482.4
9378.1
8747.2
4834.5
-891.25
-6289.9
-9344.9
-8911.3
-5143.1
558.03
6059.7
9295.3
9043.3
5390.9
-295.28
-5883.5
-9279
-9210
-5704.3
-77.484
5559.9
9093
9197.4
5837.1
278.35
-5388.3
-9036.2
-9301.1
-6088.6
-603.6
5104.1
8903.5
9372.8
6329.1
900.75
-4886
-8860.6
-9525.3
-6626.2
-1253.9
4567.9
8650.9
9469.3
6729.9
1473.8
-4320.5
-8480.9
-9452.4
-6877.1
-1725.6
4067.8
8332.8
9475.8
7073.3
2024.6
-3784.7
-8183.5
-9520.6
-7284
-2302.4
3555.8
8082.9
9571.5
7465.4
2565.9
-3282.4
-7892.7
-9551.1
-7643.3
-2875.4
2981.1
7734.4
9586.5
7820.9
3093.8
-2805
-7640.1
-9593.8
-7952.7
-3355.5
2472.2
7368.4
9521.9
8125.3
3676.4
-2183.6
-7259.7
-9626.4
-8375.2
-3977.5
1895.3
7022.8
9488.3
8391.4
4163.1
-1611.7
-6781.9
-9418
-8525.6
-4426.5
1346.6
6620.3
9404.3
8647.1
4630.4
-1145.5
-6529.1
-9520.2
-9012.6
-5207.9
455.58
5839
8911
8517.6
4815.1
-796.87
-6206.7
-9374.4
-9077.6
-5357.4
492.3
6391.2
10237
10693
7688.9
2448.4
-2989.3
-6547.1
-6890.8
-3917.2
1216.6
6525.6
9934.7
10060
6750.4
1164.5
-4653.2
-8553.3
-9104.1
-6132.3
-778.77
4936.3
8863.5
9516.8
6628.4
1263.2
-4565.2
-8653
-9455.1
-6682
-1401.7
4385.7
8516.9
9466.3
6891.8
1747.2
-4064.6
-8379.9
-9573.6
-7180
-2087.4
3789
8236.7
9586.8
7338.7
2336
-3553
-8127
-9666.3
-7582.2
-2652.7
3261.1
7924.6
9586.8
7641.8
2838.9
-3018.9
-7751.4
-9598.4
-7861.7
-3173
2720.1
7594.4
9597.6
7967.7
3329.6
-2555.6
-7475.4
-9601
-8154.1
-3678
2165.9
7200.2
9530.9
8262.7
3855.8
-2033.3
-7181
-9648.1
-8514.7
-4215.3
1637.8
6859.9
9501.3
8568.8
4401.5
-1443.9
-6771.7
-9576.9
-8806.4
-4754.4
1057.5
6457.2
9430.7
8865.6
4964
-824.08
-6330
-9477.6
-9072.9
-5266.5
501.73
6054.2
9306.2
9049.3
5393.5
-285.45
-5864.2
-9259.7
-9200.3
-5701.1
-63.344
5605.5
9179.1
9312.7
5952.1
356.98
-5372.8
-9087.5
-9394.6
-6178.6
-641.15
5149
9025.1
9529.5
6461.6
964.47
-4894.1
-8898.6
-9531.2
-6555.4
-1103.4
4766.2
8858.4
9664.5
6908.9
1632.2
-4200.2
-8416.8
-9435.3
-6854.4
-1620.6
4309.8
8702.8
9896.8
7439.8
2259.8
-3691.1
-8178.4
-9524.3
-7233.4
-2173.8
3751.3
8319.4
9823.6
7712
2788.9
-3094.7
-7738.8
-9415.8
-7510.1
-2741.8
3102.9
7835.9
9680.7
7935.5
3239
-2661.8
-7559.4
-9612.1
-8040.2
-3427.7
2491.6
7488
9681.5
8251.8
3741.6
-2157
-7242.3
-9622.4
-8413.5
-4066.3
1797.3
6983.6
9546
8520.2
4290.7
-1554
-6823
-9546.6
-8708.4
-4619.9
1194.5
6558.3
9452.1
8777.2
4782.9
-1018.2
-6427.4
-9404.3
-8843
-4977.1
729.77
6144.1
9253.5
8901.4
5210.8
-452.78
-5975
-9278.1
-9108.6
-5522.6
129.29
5717
9140.4
9120.1
5670
84.873
-5545.2
-9112.6
-9278.4
-5977.3
-447.28
5233.4
8931.2
9263.2
6115.9
681.39
-4997.6
-8796
-9298.3
-6321.9
-981.85
4724.7
8659.4
9339.6
6495.8
1182
-4610.6
-8698.9
-9536.3
-6803.9
-1532.3
4294.7
8497.4
9519.2
6997.9
1884.5
-3916.6
-8248.4
-9492.9
-7174.1
-2150.3
3691.6
8143.8
9521.1
7308.9
2354.5
-3469
-7980
-9502.7
-7476
-2649.9
3187.1
7856
9590.8
7709.4
2895.1
-3044.1
-7860.2
-9729.9
-7953.4
-3210.5
2710.9
7596.1
9628.4
8057.7
3476.1
-2400
-7367.9
-9565.7
-8176.1
-3732.3
2091.1
7113.7
9463.9
8267.9
3967.6
-1839.1
-6983.7
-9530.8
-8509.9
-4292.2
1542
6800.3
9506.5
8641.9
4522.9
-1315.7
-6686.4
-9563.6
-8853.5
-4822.6
995.3
6393.8
9351.1
8797.4
4990.1
-623.02
-5962.3
-9068.7
-8795.4
-5219.3
360.66
5866.7
9202.9
9066.1
5476.6
-209.06
-5825.6
-9245.7
-9194.4
-5713.5
-119.99
5498.8
9056.5
9230.1
5949.4
431.68
-5260.8
-8990.3
-9351.8
-6209.1
-746.65
4980.3
8822.8
9344.8
6356
977.97
-4776.9
-8755.4
-9465.3
-6634
-1314.9
4500.2
8624.7
9500.4
6790
1508.9
-4356.8
-8600.5
-9628.5
-7057.7
-1855.4
4025.6
8379
9571
7154.4
2038.3
-3853.8
-8309.4
-9660.5
-7407
-2396.1
3500.4
8083.7
9641.3
7582.4
2665.1
-3275.4
-8007.6
-9745.3
-7830.8
-2988.7
2950.7
7749.2
9608.7
7843.7
3129.6
-2757.2
-7608.9
-9611.7
-8021.9
-3439.1
2422.8
7376.4
9572.4
8183.6
3714.3
-2178.2
-7290.7
-9696.9
-8479.2
-4085.8
1832.4
7048.8
9604.8
8545.1
4269.8
-1619.8
-6917.5
-9634
-8744.5
-4582
1282.9
6638.1
9473.1
8737.2
4723.6
-1056.9
-6445.5
-9434.2
-8904
-5042.9
713.45
6209.3
9377.7
9025.3
5286.3
-433.05
-5988.3
-9301.8
-9133.4
-5540.4
139.31
5777.5
9249.2
9238.5
5744.6
85.886
-5603.8
-9188.6
-9334.5
-6000.2
-440.94
5264.3
8984.5
9326.9
6157.2
656.86
-5113.7
-8986.8
-9505.1
-6472.6
-1027.9
4785.6
8789.1
9484.2
6611.8
1248
-4598.4
-8735.7
-9610.7
-6894.3
-1608.5
4257
8496.6
9522.8
6960.8
1780.9
-4074.6
-8420.1
-9638.3
-7276.4
-2217.5
3639.9
8084.6
9426.1
7141.9
2082.2
-3855
-8450.7
-10003
-7950.8
-3068.2
2835.7
7581.4
9420.8
7691.5
3084.4
-2596
-7105.3
-8617.9
-6432.7
-1248.3
5092.3
10283
12410
10662
5654.9
-782.91
-6290.1
-8873.7
-7670.9
-3260.9
2590.1
7624.8
9940.9
8671.1
4276.4
-1628.9
-6859.8
-9463.8
-8460.6
-4231
1619.6
6878.1
9569.5
8693.6
4580.4
-1242.8
-6610.5
-9511.4
-8842.9
-4848.8
954.76
6360.7
9332.5
8783.4
4960.1
-691.24
-6080.7
-9226.3
-8954.7
-5333.7
315.54
5872.3
9212.5
9047.8
5447.9
-193.26
-5725.1
-9081.7
-9045
-5658.8
-183.98
5360.6
8917.5
9141.7
5919
439.57
-5236.4
-8964.1
-9338.7
-6225.1
-795.8
4917.8
8780.6
9341
6373.7
979
-4814.7
-8814.4
-9504.8
-6633.6
-1300.6
4477.3
8541.3
9396.1
6747.7
1593.4
-4152.1
-8355
-9443
-6990.9
-1895.6
3941.9
8323
9585.1
7240.2
2166
-3728.2
-8227.5
-9647.6
-7463
-2497.3
3388.3
7990.2
9584.8
7576.8
2725.6
-3139.9
-7814.7
-9551.1
-7710.2
-2988.7
2852.3
7640.8
9590.2
7957.6
3331.6
-2565.9
-7512
-9628.7
-8111.3
-3542.3
2342.5
7330.7
9571.3
8249.9
3868.1
-1948.3
-7037.1
-9485.5
-8348.7
-4029.4
1850.8
7065.6
9646
8637.5
4447.1
-1337.5
-6557.9
-9280.7
-8493.7
-4474.9
1295.6
6664.2
9603.9
8992.3
5055.3
-713.55
-6130.8
-9161
-8680.2
-4880.5
816.86
6289.8
9494.8
9222.5
5559.7
-126.19
-5692.4
-9036.4
-8902.4
-5358.1
245.19
5797.9
9228
9263.4
5890.4
355.37
-5287.2
-8927.3
-9188.2
-5958.2
-449.2
5257
9003.4
9381.9
6262.2
827.6
-4881.4
-8733.4
-9295.2
-6359.8
-1023.5
4718
8711.5
9452.8
6654.3
1356.8
-4458.2
-8610.4
-9537.9
-6885.6
-1643.3
4221.1
8500.1
9580.1
7052.1
1866
-4029.9
-8423.3
-9668.3
-7299.9
-2207.7
3697.6
8200.5
9614
7413
2428.3
-3470.7
-8079.6
-9678.6
-7668.6
-2793.2
3131.3
7884.9
9673.2
7811.8
2995.5
-2961.5
-7816.7
-9751.9
-8051.1
-3356.4
2580.7
7547
9682.1
8171.9
3567.9
-2401.8
-7480.3
-9747.6
-8359.2
-3859.6
2045.1
7146
9553.4
8380.4
4057.7
-1818.9
-7061.3
-9695.5
-8711.6
-4466.6
1439.2
6773.6
9529.7
8684.9
4573.4
-1254.9
-6618.4
-9512.6
-8852.9
-4881.7
916.03
6366.6
9425.5
8947.5
5113.8
-640.58
-6164.8
-9392.5
-9111.1
-5419.1
302.98
5906.9
9287.4
9178.7
5629.2
-25.297
-5669.1
-9196.6
-9291.2
-5912.7
-318.93
5394.1
9073.4
9324.4
6045.9
473.43
-5291.9
-9081.5
-9475.9
-6332.1
-829.44
4973.6
8906.9
9497.7
6522.2
1091.9
-4760.7
-8844.1
-9628.3
-6817.8
-1462
4434.5
8660.4
9625.9
6963.6
1670.9
-4264
-8614.5
-9755.9
-7272.4
-2102.9
3820.1
8292.5
9652.4
7390.6
2341.6
-3617.3
-8256
-9825.9
-7725.7
-2739
3257.3
8004.9
9722
7772.4
2896.5
-3075.4
-7909.4
-9798.6
-8033.7
-3270.2
2709.8
7659.8
9713.4
8093.6
3410.2
-2569.6
-7593.1
-9774.8
-8304.5
-3744.5
2189.5
7274.8
9611.8
8329.1
3906.3
-2005.1
-7195.4
-9720.3
-8629
-4324.2
1583.3
6875.5
9561.5
8629.7
4431.7
-1450.6
-6803.6
-9617.5
-8840.4
-4769.1
1066.7
6478.9
9438.5
8835.3
4894.4
-905.2
-6385.5
-9489.5
-9055.5
-5251.3
494.66
6033
9296
9065.2
5424
-269.98
-5885.3
-9311.1
-9253.4
-5729.1
-63.463
5611.5
9164.9
9268
5887.1
289.33
-5432.7
-9138.7
-9437.9
-6211.4
-664.78
5119.1
8963.3
9420.8
6321.4
833.19
-4981.9
-8944.7
-9572.9
-6630.8
-1215.9
4648.3
8764.1
9580.7
6780.6
1406.9
-4522.6
-8774.4
-9746.2
-7074.5
-1770.8
4165.7
8506.5
9631.4
7130.4
1949
-3970.6
-8414.2
-9719.6
-7395.4
-2306
3646.9
8232.3
9724.8
7554.2
2525.2
-3479.9
-8205.2
-9871.8
-7851.3
-2905.1
3104.4
7919
9736.9
7886.4
3070.6
-2901.7
-7794.6
-9777.8
-8109.7
-3415.3
2545
7535
9682.8
8185.7
3609.4
-2327.8
-7402
-9715.1
-8402.5
-3954.6
1964.8
7137.4
9620.1
8475.3
4127.9
-1791.1
-7056.5
-9687.6
-8695.2
-4454.4
1438.6
6770
9541.7
8719.6
4616.9
-1227.9
-6627.9
-9563.7
-8936.2
-4978.7
826.79
6302.1
9389.6
8926.7
5083.3
-705.1
-6279.1
-9565.6
-9350
-5727.4
-65.668
5502.2
8875.3
8774.2
5227.6
-433.94
-6076.1
-9561.5
-9547.8
-5983.1
-118.74
5956.9
10090
10854
8074.8
2889.8
-2682.8
-6506.1
-7129.3
-4330.7
803.39
6287.8
9983.4
10403
7280.7
1697.3
-4313.7
-8529.6
-9391.6
-6608.5
-1266.4
4595.7
8766
9688.6
7028
1776.8
-4117.2
-8465
-9641.7
-7194.9
-2028.5
3922.3
8414.1
9746.3
7409
2277.5
-3720.8
-8334.4
-9834.7
-7664.2
-2644.4
3334.7
8026.9
9676.5
7676.4
2790.1
-3143.6
-7904.2
-9717.3
-7911.2
-3161.5
2760.2
7641.2
9649.9
8021
3349.3
-2623.7
-7658.3
-9858.7
-8391.4
-3803.6
2180.4
7310.8
9661.9
8357.1
3895.4
-2042.2
-7228.4
-9724.8
-8603.9
-4289.9
1602.5
6869.1
9535.5
8594.1
4386.7
-1514.1
-6889.3
-9710.5
-8911.5
-4794.8
1086.9
6524.4
9488
8882.8
4945.7
-850.98
-6347
-9490.4
-9098.5
-5305.6
475.63
6075.1
9381.6
9144.5
5450.3
-308.65
-5962.4
-9383.4
-9288.9
-5722.1
-31.873
5641
9172.3
9250.3
5858.5
270.17
-5430.5
-9119.9
-9416.1
-6192.6
-637
5177.6
9062
9541
6423.1
881.05
-4994
-8990.2
-9611.4
-6634.6
-1183.4
4698.6
8812
9622
6831.2
1492.6
-4386
-8596.2
-9558.7
-6913.2
-1648.2
4271.1
8635.4
9811.5
7352.6
2170.5
-3796.3
-8304.6
-9651.8
-7324
-2194.8
3805.3
8421.4
9927.1
7770.3
2772.2
-3189
-7883.6
-9559.8
-7592.2
-2714.1
3251.6
8067.5
9917.9
8096.6
3281.2
-2717.2
-7640.6
-9641.8
-7981.1
-3295.4
2651.9
7636.4
9798.2
8326.2
3759.4
-2206.7
-7342.7
-9717.8
-8431.7
-3963.9
2002.8
7219.8
9723.4
8574.3
4205
-1745.6
-7047.6
-9714.4
-8747.9
-4513.8
1396.3
6765.1
9583.1
8799
4707.7
-1163.2
-6620.5
-9620.4
-9032.4
-5069.6
783.57
6327.7
9480.2
9061.8
5237.1
-555.11
-6144.6
-9439.5
-9204.9
-5526.5
213.72
5852.4
9263.6
9169.3
5622.8
-23.986
-5646.3
-9150.1
-9242.5
-5895.1
-347.29
5343
9046.9
9354.6
6119.4
537.4
-5291.2
-9161.5
-9611
-6476.1
-943.58
4909
8895.4
9530.6
6578.3
1140.8
-4744.8
-8865.9
-9671.7
-6863.8
-1507
4382.5
8603.2
9588.3
6975.2
1732.4
-4194
-8588.9
-9790
-7324.5
-2109.3
3886.4
8395.9
9726.1
7396.1
2297.7
-3658.5
-8257.6
-9789.7
-7675.3
-2690.1
3302.9
8041.6
9727.9
7727.9
2816.1
-3135.8
-7889.3
-9683.9
-7873.4
-3140.7
2761.3
7642.4
9670.7
8059.6
3386.4
-2601.3
-7642.1
-9829.1
-8342.2
-3751.8
2211.5
7315
9655.1
8358
3904.5
-2040.8
-7245.3
-9747.7
-8605.3
-4252.4
1669.2
6938.3
9588.8
8637.1
4439
-1443.7
-6816.9
-9666.2
-8913.4
-4830.9
1052.2
6525.1
9530.8
8941.2
4977.9
-872.95
-6417.2
-9572.8
-9152.6
-5315.9
489.05
6074.2
9343.1
9080.8
5401.2
-307.93
-5909.2
-9309.8
-9235.2
-5705.9
-37.964
5642.5
9198.3
9291.7
5890.8
276.68
-5445.9
-9139.8
-9429
-6204.6
-665.6
5120.7
8984.9
9469.1
6383.4
884.4
-4960.6
-8957
-9610.1
-6681.4
-1270.7
4597.5
8725.6
9559.9
6775.6
1409.2
-4521
-8775.7
-9748.9
-7081
-1789.7
4127.5
8456.8
9595.5
7136.4
2004.3
-3891.9
-8358.9
-9724.5
-7461.2
-2396.9
3578.1
8213
9749.2
7595.7
2560.2
-3457.4
-8189.1
-9859.1
-7849.5
-2924.5
3065
7878.1
9719.7
7906.5
3118.8
-2854.4
-7781
-9817.8
-8199.1
-3526
2454.9
7502.1
9718.3
8266.4
3687.5
-2298
-7438.6
-9802.2
-8504.4
-4039.8
1910.6
7115.1
9628.7
8517.2
4202.2
-1697.7
-6970.9
-9639.4
-8702
-4510.9
1358.8
6703.3
9517.3
8744.7
4671.5
-1181.1
-6622.7
-9611.5
-9021.4
-5071.1
754.13
6263.9
9392.3
8976.8
5186.8
-550.67
-6090
-9364.2
-9148.1
-5514
187.01
5820.6
9265.5
9216.5
5683.7
-8.1863
-5721.3
-9311.7
-9434.4
-6044.2
-410.99
5354.7
9091.4
9398
6162
601.98
-5194.4
-9056.3
-9541.4
-6469.6
-986.94
4857.7
8871
9535.5
6588.8
1135.4
-4765.5
-8885.9
-9680.5
-6867.2
-1516.9
4365.1
8590.6
9591.5
6991.7
1750.6
-4178
-8565.3
-9749.9
-7279.6
-2090
3856.9
8328.1
9660.4
7367.7
2304.3
-3655
-8296.5
-9878.5
-7789.5
-2801
3206.3
7958.2
9666.2
7709.7
2850.9
-3082.6
-7895.3
-9827.1
-8181.2
-3572.8
2282.3
7182.9
9259.7
7697.6
3069.1
-2871.3
-7859.3
-9987.3
-8417.2
-3674.8
2563.9
8094.2
10982
10260
6283.8
605.29
-4598.7
-7344.2
-6596.3
-2668.6
2896.3
7918.1
10414
9352.6
5051.5
-943.18
-6433.9
-9397.4
-8747.1
-4744.4
1095.5
6570.2
9615.7
9079.8
5154.8
-694.44
-6278.8
-9505.9
-9166.1
-5387.6
409
6043.3
9394.5
9200.8
5536.7
-215.31
-5889.2
-9356.4
-9327.2
-5828.5
-182.18
5497.1
9090.7
9258
5932
349.38
-5401.9
-9158.8
-9500.1
-6291.4
-740.95
5059.8
8930.9
9424.3
6361.5
892.36
-4935.8
-8940.2
-9616.8
-6707.1
-1300.7
4572.3
8707.6
9558
6810.7
1498.5
-4391
-8656.1
-9699.1
-7123.4
-1887.5
4047.7
8452.6
9668.7
7234.4
2059.3
-3916.9
-8451.3
-9837.6
-7549.2
-2442.1
3562.7
8204.5
9738.5
7594.2
2584.2
-3408.4
-8138.9
-9837.6
-7867.5
-2964.6
3032.8
7870.9
9732.1
7923
3132.7
-2835.9
-7750.2
-9779.9
-8169.4
-3514.7
2452.1
7496.4
9715.2
8263.3
3686.3
-2282.5
-7387.6
-9713.7
-8402.5
-3957.6
1958.5
7143.2
9661.6
8561.2
4237.2
-1697.2
-7007.6
-9687.1
-8725
-4489.6
1422.5
6800.5
9647.6
8913.7
4874.7
-968.69
-6437
-9475.7
-8927.9
-4983.6
879.43
6451.5
9632.4
9230.4
5408.5
-384.99
-5969.9
-9253.6
-9011.4
-5338.3
390.18
6033.8
9485.3
9455.5
5955.1
292.69
-5412
-9019.6
-9174.5
-5815.2
-200
5564.5
9313.6
9635.6
6402.1
818.08
-5026.4
-8939.3
-9451.4
-6373
-866.04
4996.3
9013.3
9683.8
6763.6
1349.8
-4533.4
-8689.1
-9565.2
-6833.5
-1516.1
4392.1
8669.6
9701.9
7091.8
1812.3
-4156.7
-8572.5
-9775.5
-7316.1
-2123.8
3846.9
8357.1
9725
7450.8
2394.3
-3551.6
-8166.2
-9725.3
-7643.3
-2697.3
3258.6
7985.5
9702.8
7760.2
2883.8
-3097.7
-7940.3
-9826.9
-8049.3
-3274.2
2707.1
7653.4
9715.5
8127
3485.8
-2473.9
-7526.5
-9778.9
-8377.3
-3834.9
2146
7309
9701.7
8425
3974.9
-1958.1
-7142.6
-9648.2
-8555.3
-4281.2
1580.5
6845
9541
8648.3
4490.6
-1375.8
-6746.9
-9604.7
-8878
-4839.4
999.29
6451
9466
8900.5
4956.4
-884.47
-6418.2
-9558.7
-9130.3
-5304.7
478.03
6057.5
9356.2
9145.4
5502.3
-211.07
-5849.4
-9292
-9248.2
-5745.2
-105.98
5559.3
9141.4
9303.8
5969.6
358.97
-5441.3
-9244.6
-9597.4
-6353.3
-742.72
5105.3
8990.6
9477.2
6411.1
950.75
-4872.7
-8895.5
-9609.1
-6726.8
-1314.2
4593.3
8761
9615.1
6845.5
1509.8
-4384.6
-8640.4
-9679.2
-7114.9
-1896.8
4031.1
8443.8
9672.4
7244.7
2074
-3888.1
-8396.5
-9762.8
-7483.4
-2418.7
3533.4
8144.8
9686.1
7575.6
2601.6
-3369.4
-8095
-9801.8
-7851.9
-2978.9
2991.4
7825.8
9717.1
7957.1
3200.8
-2775.7
-7736.7
-9822.2
-8246.1
-3595.7
2384.9
7448.2
9690.2
8270.4
3728.4
-2223.3
-7348.5
-9729.4
-8481.6
-4078
1832.3
7038.8
9590.7
8525.7
4234
-1680.1
-6996.9
-9716.1
-8812
-4620.8
1286.7
6696.3
9580.4
8856.8
4794.2
-1086.7
-6581.8
-9630.1
-9089.2
-5164.6
667.8
6218.3
9405.1
9034.9
5249
-529.73
-6130.8
-9451.1
-9245.5
-5593.4
133.58
5789.3
9257.5
9242.3
5750.9
91.483
-5615.4
-9229.9
-9395.9
-6051.2
-449.9
5309.3
9069.9
9422.4
6229.2
677.37
-5160
-9094.9
-9646
-6600.7
-1101.6
4782.2
8837.4
9543.4
6643.5
1236.2
-4643.3
-8790.6
-9656.8
-6923.4
-1615
4285.6
8575.4
9646.8
7086.6
1839
-4134.5
-8583.8
-9823.7
-7383
-2188.9
3793.3
8317.7
9706.3
7462.1
2432.9
-3511.4
-8161.3
-9774.7
-7729.2
-2776.6
3219.3
7986
9717.5
7768.2
2887.7
-3081.4
-7905.7
-9789.3
-8030.8
-3282
2684.9
7632.3
9699.8
8113.5
3478.1
-2460.8
-7481.8
-9714.6
-8325.6
-3823.7
2117
7265
9667.4
8404.3
3955.8
-1981.9
-7160
-9643.5
-8529.5
-4256.5
1580.4
6818.6
9511.5
8641.5
4511.5
-1346.6
-6735.3
-9622.8
-8918.9
-4888.2
953.7
6413.2
9438.8
8887.9
4957.8
-884.37
-6454.6
-9678.4
-9370.9
-5669.8
29.496
5596.4
8947.9
8816.6
5236.2
-445.41
-6056.9
-9433.3
-9254
-5541.9
375.2
6394.3
10416
11076
8205.9
2888.7
-2897.5
-6975.3
-7787.2
-5026.5
206.68
5827.2
9598.1
10014
6871
1317.4
-4597.3
-8689
-9445.1
-6591.9
-1209.6
4665.2
8812
9673.2
6937.3
1638.7
-4244.5
-8527.8
-9620.1
-7108.7
-1922.2
4001.1
8432.5
9697
7312.4
2171.9
-3796.8
-8357.8
-9801.3
-7582.7
-2531.9
3450.2
8105.9
9681
7593.2
2644.4
-3298.1
-8013.2
-9750
-7864.9
-3054.3
2895.2
7758.4
9701.8
7983.6
3246
-2726.2
-7686.9
-9778.8
-8224
-3605.5
2352.8
7422.1
9697.6
8317.6
3798.5
-2156
-7303.2
-9714.2
-8496.1
-4113.8
1793.5
7020.6
9610.1
8581.2
4308.1
-1607.5
-6937.3
-9674.1
-8794.5
-4636.6
1240.1
6643.3
9559.1
8892.6
4879
-989.43
-6509.9
-9599.2
-9090.8
-5181.5
651.11
6217.2
9439.9
9122
5381.7
-390.17
-6037.4
-9437.1
-9301.5
-5675.3
74.445
5781.5
9306.3
9340.7
5886.1
239.74
-5491.1
-9167.1
-9407.7
-6110.4
-499.14
5325.2
9172.8
9591.9
6419.7
846.57
-5030.6
-8997.5
-9559.7
-6509.1
-1002
4885.4
8948.4
9684.8
6845.3
1508.8
-4329.1
-8493.5
-9427
-6766.8
-1491.9
4427.2
8761.8
9872
7337.5
2119.1
-3811.9
-8225.7
-9472.3
-7091
-1972.6
3974.9
8533.2
9996.5
7810
2785.7
-3195
-7885.3
-9521.9
-7493.4
-2571.4
3384.4
8131.4
9889.4
8003.2
3180.1
-2781.8
-7664.7
-9652.6
-8003.9
-3329.6
2628.4
7641.2
9826.2
8356.2
3775.1
-2204
-7341.2
-9710.8
-8423.9
-3962.5
1998.4
7217.5
9729.7
8589
4227.1
-1711.7
-6995.3
-9647.1
-8684.4
-4477.4
1396.6
6742.7
9562.1
8794.8
4718.8
-1146.1
-6601.3
-9595.8
-9001.3
-5039.8
801.17
6329.3
9470.5
9043.7
5202.5
-619.1
-6239
-9543
-9283.9
-5557.1
231.84
5901.1
9322.4
9224.9
5666.7
-0.60614
-5650.1
-9176.9
-9276.3
-5919.4
-359.25
5331.5
9024.1
9324.8
6102.8
552.6
-5244.2
-9102.5
-9563.9
-6452.5
-939.05
4905.6
8891.1
9525
6566.9
1120.1
-4773.1
-8893.1
-9682.2
-6842
-1450.3
4454.9
8656.9
9596.9
6944.5
1701
-4181.2
-8516
-9683.2
-7231.7
-2063
3888.8
8380
9711
7377.7
2261.5
-3710.9
-8298.3
-9784.6
-7615.8
-2605
3369.5
8065.4
9719.8
7714.6
2808.7
-3151.7
-7930.8
-9739.8
-7902.2
-3104.2
2858.8
7749.8
9728.5
8045.2
3327.3
-2656.6
-7662.5
-9813.4
-8301.7
-3691.8
2288.6
7394.8
9710.4
8372.3
3894.8
-2034.8
-7198.6
-9677.2
-8551.1
-4232
1683.2
6985.4
9666.8
8691.5
4418
-1520.5
-6857.3
-9587.8
-8733.2
-4665.5
1092.9
6455.3
9501.2
9121.7
5412
-313.01
-5935.2
-9301.3
-9079.2
-5329.7
490.24
6117.1
9393.7
9100.8
5383.5
-348.12
-5958.3
-9360.4
-9275.4
-5716.7
-12.104
5682.2
9208.2
9242.5
5796.9
189.2
-5476.3
-9098.3
-9340.9
-6112.6
-603.87
5136.7
8953.6
9397.9
6288.4
791.27
-5022.5
-8965.2
-9558.3
-6581.8
-1150.7
4702.8
8785.9
9564.8
6742.4
1374.9
-4523.1
-8737.5
-9687.8
-7020.3
-1737.9
4178.8
8514.9
9649.9
7161.9
1981.9
-3955.8
-8434.1
-9777.3
-7474.9
-2378.3
3607.2
8230.9
9746
7579.1
2552
-3434.5
-8128.9
-9779.8
-7782.4
-2889.2
3076.1
7888.6
9740.4
7919.8
3097.1
-2911
-7828.2
-9796.2
-8087.4
-3368.4
2577.4
7533.9
9670.3
8198.3
3653.4
-2290.2
-7419.3
-9800
-8518.3
-4046.8
1924.6
7139.1
9638.1
8497.5
4159.7
-1746.6
-7013.5
-9669.6
-8713.2
-4496.6
1396.1
6744.1
9536.1
8733.8
4655.1
-1161.3
-6540.3
-9478.1
-8878.3
-4957.2
827.93
6313.1
9436
9016.6
5206.8
-566.7
-6141
-9428.6
-9195.4
-5522.8
216.98
5867.1
9297
9212.5
5651.8
-32.335
-5695.9
-9218.7
-9294.8
-5905.1
-314.03
5397.1
9093.9
9380.3
6131.3
556.01
-5249.5
-9097.2
-9541.1
-6422.9
-921.35
4900.1
8866.5
9496
6547.7
1115.3
-4772.4
-8905.1
-9724.7
-6918.9
-1544.3
4374.9
8615.5
9592.6
6950.2
1684.6
-4236.1
-8610.4
-9822.1
-7438.4
-2368.1
3477.1
7894.2
9210.6
6914.9
1857.6
-4058.9
-8591.5
-10001
-7706.7
-2496.6
3772.5
8871.7
11020
9531.6
5058.5
-652.09
-5406.8
-7388.5
-5847.5
-1392.9
4238.2
8847
10614
8790.2
3977.3
-2094.5
-7208.4
-9485
-8090.2
-3561.3
2383.5
7490.1
9823.8
8502.6
4024.8
-1929.2
-7133.7
-9649.2
-8541.1
-4225.7
1681.4
6964.1
9633.9
8679.8
4453.9
-1457.7
-6831.6
-9647.4
-8851
-4750.8
1103.1
6508.9
9445.3
8825.5
4893.4
-878.55
-6339.8
-9455
-9054.2
-5272.1
487.89
6066.2
9356.6
9109.2
5412.6
-340.8
-5988.2
-9416.6
-9350.4
-5817.9
-135.68
5577.5
9182.1
9316.7
5918.6
260
-5527.3
-9262
-9542.1
-6271.2
-684.1
5124.8
8985.5
9457
6362.2
857.89
-4991.7
-8987.1
-9624.7
-6668.8
-1238.8
4619.8
8711.7
9514.9
6741.1
1433.3
-4426.7
-8651.4
-9657.9
-7058.1
-1812.2
4119.9
8508.4
9693.9
7221.3
2018.2
-3953.4
-8442.6
-9764.2
-7432.3
-2335.4
3607.8
8173.6
9663.2
7529.9
2576.8
-3345
-8023.8
-9709.1
-7765
-2909.1
3050.1
7884.1
9775.6
8001.8
3215
-2791.9
-7754.7
-9796.1
-8143
-3422.2
2583.8
7620.2
9811
8353.4
3802.2
-2143
-7264.3
-9642.2
-8371
-3911.4
2067.6
7313.1
9847.5
8724.3
4382.4
-1533.9
-6805
-9467.4
-8534.7
-4355
1519.1
6899.6
9773
9055.8
5010.7
-843.8
-6303.3
-9311.7
-8738.2
-4802.9
1009.6
6510.9
9631.6
9198.4
5374.4
-403.58
-5966.8
-9231.5
-8980.9
-5318
377.28
5967.5
9357.4
9274.9
5746.1
86.071
-5591.1
-9161.9
-9287.7
-5916.9
-306.5
5443.9
9175.1
9476.7
6221.5
621.62
-5221.4
-9108.5
-9577.1
-6456.3
-927.92
4927
8916.2
9555.1
6614.1
1197
-4671.7
-8797.1
-9632.3
-6861
-1522.5
4375.7
8616.2
9609.6
6991
1749.7
-4149.4
-8502.1
-9683.8
-7251.1
-2108.9
3821.4
8314.9
9677.5
7387.9
2300.2
-3674.7
-8289.3
-9808.3
-7661.4
-2656.3
3325.9
8038.3
9711
7717.2
2809.4
-3164.3
-7957.4
-9772.6
-7936.2
-3145.1
2802.4
7683.4
9677.7
8041
3379.1
-2573.4
-7592.5
-9792.4
-8337.2
-3764.1
2211.7
7344.7
9710
8429.5
3993.9
-1930.8
-7131.3
-9668.5
-8592.4
-4296.4
1620.5
6939
9649
8715
4480.6
-1454.4
-6844.9
-9660.6
-8855
-4748
1111.8
6537.1
9512.6
8933.3
5009
-806.95
-6345.8
-9527.4
-9146.2
-5337.8
464.92
6075.4
9384.8
9156.3
5482.4
-259.27
-5922.2
-9387.7
-9352.7
-5822.8
-119.51
5611.4
9212.8
9335.7
5946.4
327.69
-5413.8
-9136.8
-9454.1
-6241.4
-687.98
5133.2
9031.6
9526.5
6420
882.3
-4994.4
-8997.5
-9632.9
-6677.4
-1246.7
4629.2
8758
9593.9
6814.8
1453.9
-4477.1
-8743.6
-9738
-7090.9
-1804.8
4133.8
8505.3
9680.8
7222.3
2044.8
-3917.3
-8426.2
-9783.4
-7478
-2383.6
3578.3
8174.3
9698.9
7600.3
2668.5
-3262.9
-7987.3
-9734.3
-7830.8
-2971.5
3023.1
7887
9773.6
7964.7
3143.1
-2873.1
-7822.9
-9852.9
-8208.1
-3510.5
2476.2
7509.2
9709.2
8263.7
3724.5
-2206.9
-7317.5
-9701.7
-8463.6
-4052.6
1891.7
7138.5
9701.3
8598
4236.2
-1736.1
-7061.9
-9737.4
-8767.6
-4530.4
1377.1
6741.4
9559.3
8783.4
4712.5
-1121.9
-6532.8
-9498.3
-8914.5
-5000.2
788.87
6297.3
9464.2
9089.3
5293.8
-508.72
-6134.9
-9461.1
-9236.5
-5556.7
183.19
5827.6
9270.7
9234.1
5734.7
78.715
-5616
-9208.5
-9343.3
-5969.9
-363.03
5365.9
9070.8
9372.6
6163.2
637.31
-5148.9
-9035.8
-9563.3
-6525.8
-1058.4
4787.9
8823.5
9545.3
6693.1
1336.5
-4526
-8703.6
-9623
-6923.2
-1608.5
4316.2
8605.4
9636.4
7030.8
1788.1
-4109.5
-8451.9
-9623.6
-7193.5
-2069.9
3834.5
8310
9675.2
7412.4
2366.8
-3571.3
-8177.7
-9727.4
-7638.3
-2689.5
3265.8
7990.6
9705.6
7764.6
2901.4
-3050.6
-7855.5
-9716.6
-7943.6
-3202.7
2733.7
7643.3
9681.4
8076.3
3428.3
-2512.5
-7510.8
-9693.2
-8249.7
-3725.2
2192.7
7298.7
9679.6
8423.6
3976.1
-2004.4
-7259.6
-9793.7
-8647.7
-4268
1677.9
6953
9597.9
8649.6
4477.1
-1366.1
-6711.1
-9566.6
-8858.6
-4843.5
971.86
6388.7
9348.4
8716.6
4715
-1163.5
-6720.9
-9882.9
-9476.7
-5666
120.03
5729.8
9097.7
9013.4
5569.5
129.13
-5175.1
-8232.8
-7756.2
-3788
2286.8
8247.7
11880
11819
8073.1
2010.4
-4159
-8212.8
-8737.2
-5640.2
-171.88
5552
9344.6
9761.9
6632.9
1111.8
-4757.5
-8799.2
-9509.1
-6617.7
-1203.7
4695.5
8847.3
9677.3
6874.6
1507.1
-4397.8
-8630.1
-9622.6
-7020.6
-1799.6
4095.9
8463.8
9659.9
7220.9
2053.4
-3900.1
-8398.2
-9752.9
-7462.6
-2390.8
3564.7
8178.8
9724.3
7617.6
2646.5
-3317.9
-8027.8
-9714
-7754.2
-2896.8
3033.9
7823.1
9682.1
7906.9
3145.9
-2826.7
-7766.2
-9808.2
-8185.1
-3517.8
2431.6
7436.4
9637.5
8220.6
3708.6
-2225
-7361.7
-9761.1
-8504.8
-4062.8
1881.2
7081.7
9593.8
8496
4212
-1662.6
-6945.3
-9660.1
-8771.3
-4592
1310.4
6702.8
9548.4
8789.2
4732.3
-1092.2
-6517.1
-9531.4
-9007.2
-5118.1
701.11
6266
9465
9079.5
5262.9
-526.12
-6098.7
-9373.2
-9143.2
-5506.2
180.9
5795.6
9231.1
9190
5689
59.221
-5568.3
-9082.4
-9184.2
-5850.7
-321.92
5358.2
9079.8
9436.8
6261.9
720.15
-5107.5
-9011.7
-9508.2
-6409.7
-889.95
4973.8
8987.1
9654.8
6732.6
1317.9
-4555.5
-8678.3
-9499.6
-6713.6
-1369.8
4530.8
8788.5
9822
7249.6
2030.9
-3883.7
-8274.5
-9487
-7061.5
-1910.1
4030.1
8531.3
9910.6
7651.9
2595.2
-3372
-8012.2
-9575.7
-7468.5
-2487.3
3482.2
8188.3
9869.8
7910.3
3051.5
-2895.2
-7718.6
-9619.2
-7877.8
-3136.7
2825.5
7759.8
9803.5
8191
3536.3
-2412.2
-7435.6
-9666.8
-8273.5
-3766.5
2177.4
7326.2
9727.2
8456.5
3984.2
-1998.9
-7231.6
-9747.4
-8614
-4271.3
1647.2
6928.8
9603.8
8675.4
4492.4
-1379
-6739.9
-9584.3
-8849.9
-4813.2
1016.8
6460.5
9477.6
8928
5004.8
-827.38
-6375.5
-9546.7
-9145
-5326.3
465.9
6053
9344.8
9119
5470.7
-229.43
-5847.7
-9283
-9251.4
-5766.9
-134.99
5536.5
9125.4
9285.4
5947.8
351.98
-5408.9
-9167.6
-9500.8
-6276.9
-712.06
5093.3
8958.1
9445.9
6395.2
962.64
-4818.9
-8795.3
-9483.1
-6619.7
-1268.9
4565.4
8686
9533
6778.6
1453.4
-4444.3
-8702.6
-9725.3
-7127.1
-1877.8
4058.8
8458.6
9671.3
7242.9
2086.4
-3862.7
-8374.4
-9758.9
-7496.2
-2430.3
3542.8
8181.3
9738.1
7623.8
2634.5
-3348.1
-8071.4
-9765.9
-7808.7
-2946.5
2995.5
7800
9679.9
7936.2
3215.4
-2726.8
-7671.6
-9760.8
-8197
-3552.9
2432.4
7503.7
9744.3
8306.8
3736.5
-2238.3
-7366.8
-9728.2
-8449.4
-4021.7
1891.5
7079
9603.5
8522.6
4242.2
-1632
-6896.1
-9576.4
-8671.4
-4523.1
1316.6
6666.2
9523.2
8806.9
4767.8
-1091.6
-6567.9
-9589.2
-9010.6
-5057.1
768.5
6270.9
9398.3
9001.4
5241.9
-480.6
-6041.2
-9364
-9191
-5567.5
155.21
5820.8
9290.8
9262.3
5757
98.555
-5595.5
-9203.5
-9380.7
-6055.4
-462.79
5304.9
9078.8
9434.5
6236.5
689.17
-5121.9
-9018.2
-9542.9
-6501.1
-1032.5
4812.2
8837.5
9531
6636.1
1247.6
-4608.1
-8740.2
-9611.3
-6901.5
-1621
4263.3
8551.7
9629.4
7079.3
1850.7
-4090.8
-8507.1
-9737.2
-7322.4
-2172.6
3780.6
8306.9
9708.2
7454
2386
-3592.2
-8231.8
-9790.2
-7688.3
-2721.9
3246.2
7987.2
9733.6
7831.4
2984.1
-3001
-7881
-9818.8
-8081.1
-3321.3
2666.6
7628.7
9702.7
8114.9
3466.9
-2492.9
-7525.2
-9741.8
-8316.1
-3793.2
2122.2
7213.1
9582.5
8355.1
3993.6
-1875.9
-7063.6
-9624.9
-8588.7
-4332.2
1550.3
6845.7
9561
8677.4
4530
-1325.6
-6698.9
-9580.6
-8889.4
-4878.2
953.84
6418.2
9460.7
8939.2
5054.8
-728.49
-6241.2
-9423.2
-9089
-5362.8
368.89
5969.3
9341.3
9211.5
5615.6
-102.9
-5791.6
-9303.2
-9313.9
-5827.6
-167.99
5532.9
9145.2
9335.1
6048.1
515.04
-5206.4
-8985.8
-9403.8
-6287
-791.27
5015.2
8931.2
9467.1
6421.4
953.83
-4868.1
-8860.9
-9541.8
-6669.2
-1319
4516.3
8661.1
9561.6
6869.9
1585.5
-4312.7
-8608.8
-9687.4
-7142.2
-1927.1
4002
8419.4
9662.2
7257.5
2107.5
-3846.4
-8358
-9731.5
-7463.4
-2423.8
3487.2
8061.2
9604.6
7556.1
2684.7
-3196.8
-7897.5
-9657.5
-7807.9
-3031.9
2879.7
7698.3
9600.5
7859.9
3122.9
-2837.9
-7795.2
-9904.3
-8392.5
-3842.8
2027.3
7009.5
9230.2
7852
3390.7
-2473.3
-7520.9
-9823.8
-8463.3
-3869.6
2344.4
7983.7
11077
10594
6809.8
1200.3
-4100.5
-7089.5
-6644.4
-2955.2
2534.8
7671.1
10412
9620.5
5506.2
-446.75
-6045.4
-9221.9
-8816.2
-5011.1
741.94
6270.9
9497.9
9213.2
5522.1
-198.34
-5813.5
-9226.5
-9162.2
-5646.9
-2.8107
5645.6
9171.4
9247.3
5845
242.11
-5461.7
-9133.1
-9400.9
-6165.5
-636.46
5116
8932
9373
6268
783.01
-5016.6
-8948.7
-9538.8
-6572.8
-1169.4
4645.5
8698
9475.5
6688.6
1380.9
-4457.5
-8635.4
-9584.7
-6952.4
-1730.4
4121.5
8412.4
9535.5
7063.3
1908.7
-4005
-8454.7
-9753.1
-7398.7
-2278.6
3666.7
8190.1
9598.1
7383.9
2398.1
-3488
-8083
-9680.4
-7682.5
-2824.6
3087.7
7843.5
9653.8
7829.3
3046.3
-2904.6
-7790.2
-9772.1
-8099.3
-3395.3
2571.5
7553
9674.8
8147.6
3559.5
-2357.6
-7387.8
-9658.6
-8327.3
-3888.1
2008.1
7156.6
9617.4
8451.2
4087.2
-1830.7
-7069.6
-9658.8
-8631.9
-4380.8
1502.5
6822.4
9594
8778.9
4677.2
-1177.8
-6589.6
-9525.6
-8882.2
-4898.4
936.84
6441.4
9552.2
9095.6
5235
-578.67
-6148.7
-9368.9
-9029.9
-5273.2
478.88
6075.8
9444
9343
5810.7
152.17
-5525.7
-9086.1
-9170.5
-5732.5
-69.898
5673.1
9335.1
9559.6
6289
761.82
-4960
-8749.7
-9193.2
-6116.5
-666.24
5106.8
9020.4
9595.6
6621
1223.5
-4571
-8602.6
-9374.9
-6600.5
-1306
4537.8
8739.3
9706
7054.5
1768.9
-4165.5
-8515.7
-9648.8
-7146.7
-1958.9
3960.6
8389.1
9668.8
7326.2
2245.5
-3666.5
-8196.7
-9651.7
-7486.4
-2505.4
3433.5
8106.9
9755.5
7748.3
2828.8
-3157.6
-7960.3
-9774.5
-7923.1
-3107.1
2862.3
7745.1
9710.2
8020.2
3308.3
-2657.2
-7638
-9769.1
-8258
-3676.6
2259.6
7334.2
9651.1
8338.6
3877.7
-2066.6
-7262
-9750.7
-8595.7
-4238.2
1676.7
6930.1
9565.6
8611
4429.5
-1418.5
-6748.3
-9559
-8786.7
-4716
1119.1
6517.2
9448
8818.1
4871.3
-913.05
-6374.2
-9468.5
-9028.4
-5207
565.65
6115.6
9351
9060.3
5366.4
-334.74
-5909.9
-9284.1
-9201.3
-5684.4
-34.499
5638
9196.7
9290.8
5879.6
254.06
-5459.4
-9112.3
-9344
-6080.7
-550.34
5179.4
8968.3
9398.1
6305.8
850.58
-4919.2
-8838.2
-9440.3
-6505.3
-1133.2
4670.3
8738.6
9545.6
6773.8
1443.1
-4458.5
-8713.4
-9713.1
-7074
-1788.3
4151.3
8508.8
9651.2
7160.4
1982.6
-3934.8
-8376.2
-9684.8
-7376.1
-2314.2
3610.7
8183.2
9686.9
7548.3
2561
-3404.2
-8100.3
-9756.3
-7751.3
-2847.1
3106.9
7878
9688.4
7873.4
3121.9
-2785.1
-7636.7
-9616.8
-7984.5
-3353.5
2537.8
7479.8
9619.6
8151.8
3617.2
-2296.3
-7378
-9717.4
-8425.4
-3977.8
1956.7
7146.7
9644.9
8521.3
4204.4
-1688.5
-6957.8
-9636.4
-8717.3
-4533.8
1354.4
6736.3
9582.3
8816.9
4728.7
-1141.8
-6590.1
-9578.2
-8992.2
-5051.2
774.57
6306.3
9465.4
9055.6
5223.8
-588.05
-6187.6
-9467.7
-9203.9
-5508.1
226.54
5855.2
9279.1
9220.1
5695.2
17.711
-5683.5
-9260.1
-9361.5
-5953.5
-331.09
5381.4
9043.7
9302.5
6083.7
600.32
-5105.8
-8915.8
-9408.6
-6386.6
-961.51
4844.7
8848
9527.8
6613
1194.2
-4687.2
-8816.4
-9645.4
-6874
-1553.6
4316.1
8539.1
9540.7
6949.5
1734.4
-4154.1
-8508.1
-9689.5
-7249.2
-2102.6
3814.2
8276.9
9613.5
7330.1
2288
-3625.3
-8200
-9723.6
-7617.1
-2658.1
3300.5
8020
9721.5
7764.3
2889.5
-3066.1
-7868
-9723.5
-7944.8
-3198.1
2744.4
7658.9
9697.4
8085.6
3424.8
-2529.5
-7533.7
-9709.8
-8251.3
-3714.9
2200.9
7292.4
9664.2
8426.9
4031.2
-1888
-7113.5
-9677.8
-8611.7
-4314.9
1595.6
6898.3
9603.1
8694
4507
-1392.3
-6790.5
-9657
-8912.9
-4842.2
1017.4
6462.4
9456.5
8890.1
4983.6
-801.21
-6305.4
-9471.1
-9108.3
-5345.3
412.41
6006.3
9337
9153.1
5520.6
-202.27
-5870.6
-9353.8
-9337.6
-5825.6
-143.25
5566
9158.9
9302.8
5965.7
410.25
-5288
-9007.9
-9359.7
-6199.4
-695.23
5092.6
8979.8
9490.4
6426.3
944.47
-4888.4
-8884.3
-9554.8
-6660.1
-1289.4
4548
8669.5
9533
6814.1
1530.6
-4339.2
-8597.8
-9650.6
-7100
-1895.8
4015.8
8416.1
9646.5
7238.1
2095.5
-3844.1
-8345.4
-9721.1
-7463.5
-2426.3
3502.7
8107.9
9668.3
7596.3
2657.6
-3309.3
-8075.3
-9854.9
-7980.9
-3163.1
2772.8
7573.2
9414.3
7598.5
2816.4
-3126.6
-8005
-10009
-8401.4
-3765.1
2226.3
7416
9941.7
8922.6
4810.9
-748.26
-5530
-7600.3
-6089.5
-1538
4328.2
9282.9
11450
9985.6
5370.9
-774.57
-6268.5
-9148.4
-8394.5
-4325.7
1500.1
6864.4
9728.5
9004.1
4957.2
-901.62
-6385.8
-9446.6
-8936.7
-5044.1
769.1
6311.9
9494.3
9120.1
5336.2
-432.18
-6025.1
-9357.6
-9192.2
-5594.6
90.493
5737
9228.2
9249.2
5784.4
127.99
-5598.2
-9241.6
-9430.6
-6094.4
-491.18
5269.9
9027.7
9383.6
6218.1
724.6
-5043.6
-8935
-9494.4
-6504.3
-1076.8
4750.4
8776.8
9477.9
6590.5
1210.2
-4633.6
-8751.8
-9612.2
-6898.4
-1618.8
4263.9
8551.5
9626
7065.8
1820.6
-4137.7
-8563.9
-9794.9
-7376.7
-2225.5
3726.3
8254.2
9667.5
7436.8
2395.9
-3563.6
-8200.6
-9772.2
-7693.2
-2751.9
3196.5
7933.5
9702.5
7853.1
3075.9
-2852.2
-7720.8
-9705.8
-8055.7
-3382.7
2560.5
7540.5
9686.8
8196.4
3631.7
-2294.4
-7362.6
-9675
-8363.3
-3914.7
2006.4
7178.8
9657.7
8509.6
4166.8
-1734.6
-6973.9
-9584.5
-8591.7
-4371.8
1495.6
6819.9
9611.9
8821.7
4734.2
-1126.7
-6558.6
-9509.4
-8860.4
-4856.4
990.4
6483.8
9576.7
9131
5326.2
-416.92
-5958.7
-9223.8
-8972.8
-5280.7
473.12
6118.3
9523.3
9411.7
5840.5
162.4
-5495.3
-9023.6
-9106.7
-5705.7
-82.569
5658
9354.1
9609.2
6329.3
755.71
-5015.7
-8830.7
-9276.4
-6193.4
-728.92
5080.6
9054.3
9681.2
6704.4
1236.4
-4656.9
-8750.5
-9512.8
-6679.6
-1332.9
4520.4
8699
9647
7005.6
1751.9
-4152.5
-8489.2
-9622.5
-7125.7
-1945.5
3962.5
8378.9
9655
7321.7
2255.2
-3653.3
-8199.3
-9682.6
-7543.4
-2576.5
3360.3
8039.5
9700.6
7714.3
2822.9
-3136.8
-7924.2
-9739.8
-7903.3
-3108.1
2843.2
7718.1
9690.9
8024.3
3345
-2590
-7550.9
-9674.2
-8166.8
-3602.8
2299.4
7329
9609.2
8289
3852.1
-2059
-7241.1
-9743.3
-8605.4
-4238.8
1713.2
6998.8
9623.3
8611.5
4365.2
-1507.2
-6806.3
-9557.4
-8735.4
-4641.4
1200.3
6599.5
9519
8848.8
4836
-1006.7
-6477.8
-9523
-9007.8
-5135.9
635.78
6147.9
9345.7
9043.3
5360.2
-326.51
-5895.3
-9265.9
-9170.3
-5629.9
40.554
5713.5
9246.1
9297.5
5845.1
193.62
-5527.8
-9176.3
-9396.1
-6112.2
-549.9
5217.5
9030.6
9447.6
6297.5
760.15
-5073.8
-9003.1
-9557.7
-6547
-1112.3
4715.9
8771.5
9543.3
6729.5
1363.2
-4550.9
-8779
-9712.6
-6996.7
-1669.7
4245.1
8524.1
9583.2
7052.9
1894
-3969
-8354.2
-9622.1
-7286.5
-2207.1
3719.5
8268
9723.4
7530.5
2504.7
-3472.9
-8159.4
-9792.8
-7757.1
-2819
3160.2
7931.4
9709
7840.2
3038.9
-2892.5
-7738.4
-9690.3
-8017.2
-3341.4
2585.6
7534.2
9637.6
8101
3502.2
-2429.6
-7469.2
-9730.2
-8366.6
-3885.7
2039.7
7192
9637.5
8454.4
4083.5
-1835.7
-7083.1
-9691.9
-8685.2
-4439
1458.4
6797.7
9574
8740.4
4605.6
-1278.6
-6701.9
-9629.3
-8964.9
-4959.7
886.71
6387.5
9484
9013.9
5149.3
-663.97
-6245.5
-9500.6
-9209.1
-5483.3
277.46
5913.1
9311.8
9198.9
5615.1
-95.275
-5786.4
-9318.8
-9366.8
-5917
-268.23
5462.1
9132.1
9371.5
6088.6
506.8
-5285.5
-9112
-9529.1
-6377.7
-847.02
4977.8
8909.2
9481.7
6492.3
1065.6
-4770.7
-8837.7
-9611.4
-6793.1
-1429.4
4471
8688.6
9633
6946.4
1640.3
-4287.9
-8610
-9706.3
-7173.8
-1973.9
3934.1
8333.5
9582.3
7222.1
2141.9
-3758.2
-8273.5
-9712.3
-7527.5
-2528.4
3413.6
8065.8
9678.4
7647.4
2739
-3205.9
-7965.7
-9764.1
-7926.2
-3129.5
2838.2
7737.9
9719
8027.3
3301
-2672
-7640.4
-9746.6
-8216.6
-3632.6
2296.3
7365.8
9682.9
8365.7
3886.3
-2084.8
-7296.9
-9775.9
-8585.8
-4185.6
1757.7
7012.9
9624
8627
4393.8
-1505.5
-6873.4
-9693.3
-8890.4
-4754.9
1153.6
6597.4
9520.9
8834.4
4814.8
-1016.9
-6477.3
-9532.7
-9045.5
-5193.7
589.53
6142.7
9382.8
9092.8
5383.5
-349.21
-5955.5
-9339
-9236.8
-5685.2
-7.1235
5674.1
9222.3
9293.6
5852.2
193.13
-5548.1
-9210
-9424
-6123.8
-557.58
5188.2
8967.8
9371.6
6249.5
767.72
-5024.3
-8960.3
-9568.9
-6622.8
-1223.1
4608.5
8676.1
9426.1
6539.2
1072.4
-4922.1
-9176.8
-10089
-7338.2
-1993.9
3928.3
8247.1
9420.2
7082
2157.7
-3464
-7594.9
-8548.9
-5807.4
-274.35
6028.1
10735
12070
9534.9
4079.3
-2292.7
-7284
-9139.6
-7265.9
-2437.1
3485.1
8235.9
9998.2
8096.2
3247.3
-2725.5
-7596.6
-9569.1
-7924.8
-3277
2649.6
7637.2
9792.2
8271.7
3629.2
-2380.7
-7479.9
-9749.7
-8358
-3851.5
2075.4
7217.9
9666
8498.8
4130.9
-1821.7
-7130.6
-9792.6
-8798.5
-4522.2
1422.8
6800.6
9596.3
8766.6
4625.9
-1270.9
-6707.3
-9638.6
-8966
-4952.5
883.65
6351
9410.4
8929.9
5094.1
-666.98
-6203.2
-9438.7
-9151.3
-5442.8
291.67
5892.5
9257.3
9131.7
5569.5
-97.936
-5758.1
-9294.4
-9371.2
-5943.2
-290.13
5455.7
9122.3
9331.6
6022
456.05
-5272.4
-9026.5
-9413.1
-6288.7
-812.88
4972.5
8898.2
9483.6
6503.3
1077.5
-4755
-8809.3
-9572.5
-6760.2
-1417
4466.9
8687.7
9648.7
6972
1658.7
-4281.7
-8600.6
-9673.2
-7112.8
-1899.5
4008
8410.9
9679.4
7343.5
2266.3
-3664.9
-8229.5
-9703.8
-7520.1
-2493.2
3486
8170.7
9808.8
7795.7
2890.1
-3074.1
-7867.5
-9689
-7841.4
-3004.6
3007.2
7928.3
9906.8
8212.6
3505.4
-2430.9
-7372
-9482
-7981.3
-3425.2
2498.5
7581.5
9910.7
8593.8
4114.2
-1839.2
-7015.1
-9463.2
-8272.9
-3903.4
2005.2
7249.1
9871.9
8883.8
4635.5
-1293.9
-6675.9
-9476.8
-8641.4
-4499.8
1370.5
6758.9
9659.2
9004.3
5042.4
-761.51
-6255.6
-9385.2
-8961
-5124.6
684.91
6271.8
9525.4
9225.3
5493.8
-265.68
-5902.6
-9317
-9233.6
-5677.8
22.819
5726.9
9284.3
9354.1
5912.7
258.14
-5486.4
-9170.6
-9418
-6137.5
-561.2
5212.9
9009.9
9403.9
6257.8
767.29
-5003.6
-8902.3
-9482.6
-6528.6
-1131.1
4705.3
8792.3
9574.8
6733.3
1326.8
-4600.5
-8804.8
-9705.7
-6982.5
-1676.3
4220.2
8513
9613.4
7117
1952.7
-3954.5
-8392.4
-9690.6
-7354.9
-2260.5
3677.1
8225.9
9677.9
7487.6
2473.8
-3487.2
-8160.7
-9790.4
-7760.2
-2831.3
3142.2
7914.4
9696.7
7829.8
3024
-2916
-7769.6
-9725.7
-8052.7
-3370.9
2572.5
7550.1
9687.4
8174.1
3576.7
-2373
-7435.9
-9714.4
-8362.8
-3895.1
2017.1
7168.8
9637.8
8496.5
4163.2
-1743.5
-7004.4
-9637.3
-8651
-4422.2
1452
6762.5
9518.6
8689
4582.5
-1264.7
-6659.1
-9571.3
-8905.9
-4919.7
878.94
6309.9
9347
8869.7
5064.5
-653.27
-6159.6
-9398.1
-9144
-5475
240.1
5852.3
9250.7
9166.4
5644
8.6549
-5638.3
-9197
-9337.6
-5994.2
-404.68
5335
9055.9
9347.5
6104.2
561.77
-5186.9
-8991.7
-9445.6
-6390.7
-964.14
4820.6
8807.7
9494.7
6603.4
1201.9
-4684.2
-8835.6
-9684
-6908.5
-1554.8
4363.3
8623
9627
7001.4
1735
-4192.8
-8557
-9723.4
-7260.6
-2097.2
3828.6
8295.8
9629.9
7329
2253.8
-3693.1
-8279.9
-9785.1
-7643.8
-2657.4
3309.1
8025.7
9728.2
7776.4
2894.5
-3094.2
-7946.2
-9840.1
-8063.7
-3284.4
2703
7652.2
9709.2
8105.4
3444.6
-2522.6
-7553.9
-9757.7
-8306.5
-3749.4
2197.2
7299.4
9646.1
8361
3925
-2005.1
-7211.9
-9741.9
-8638.6
-4308.9
1622.5
6924
9601.9
8654.6
4446.3
-1436.9
-6787.3
-9601.7
-8828
-4756.2
1088.3
6513.2
9481
8875.6
4923.5
-891.3
-6385.5
-9496.9
-9057.8
-5232.9
542.63
6102
9360.7
9099.6
5419.8
-299
-5918.2
-9338.5
-9279.4
-5756.2
-79.43
5625.9
9211.9
9319.5
5900.6
242.95
-5520
-9221.7
-9480.2
-6208.5
-634.76
5159.7
9009.7
9466.4
6343.3
801.99
-5072.3
-9059.8
-9658.7
-6658.2
-1205.2
4649.7
8728.9
9527.1
6749.7
1417.2
-4494.7
-8769.1
-9778
-7119.3
-1792.9
4177.9
8535.4
9657.4
7156.4
1992.8
-3904.3
-8348
-9683.4
-7396.6
-2324.7
3632.9
8223.4
9708.8
7537.6
2545.6
-3383.7
-8040.7
-9703.3
-7754.4
-2904.4
3053.6
7886.7
9755.8
7930.6
3090.8
-2928.9
-7852
-9834.9
-8152.7
-3447.9
2523.4
7539.1
9723.7
8246.3
3647.7
-2345.8
-7472.1
-9800.1
-8465.3
-3985.8
1951.7
7131.6
9626.5
8500.4
4156.7
-1795.9
-7128.6
-9827
-8862.4
-4593.4
1369.3
6779.4
9607.1
8799.5
4667.2
-1235.6
-6692.5
-9654.9
-9013.1
-5016.4
822.93
6306.6
9381.1
8904.8
5064.7
-703.17
-6252.3
-9522.9
-9307.5
-5700.4
-63.668
5481.4
8847.4
8761.3
5242.7
-396.6
-6033.8
-9524.2
-9506.9
-5921.5
-32.672
6049.2
10163
10901
8109.3
2929.5
-2639.4
-6479.8
-7139.5
-4377.3
733.78
6203
9878
10274
7149.3
1602
-4346.4
-8513
-9371.7
-6624.6
-1316.7
4549.9
8762.7
9729.8
7078.9
1797.3
-4139.8
-8510.2
-9677
-7202.8
-2018
3924.8
8385.1
9683.2
7335.9
2233.5
-3704.9
-8258.1
-9731.1
-7579.2
-2606.1
3332.5
8014.3
9679.8
7697.5
2808.8
-3149.6
-7941.2
-9772.4
-7962
-3189.3
2762
7665
9676.6
8029.9
3331.8
-2656.1
-7679.3
-9846.7
-8346.4
-3748.4
2218.5
7320.2
9651.4
8343.4
3886.4
-2051.3
-7245.4
-9749
-8623.7
-4291.5
1625.4
6912.7
9590.5
8651.4
4440.5
-1466
-6846.3
-9670.6
-8873.9
-4763.4
1102.8
6514.7
9448.3
8819.4
4875.9
-904.4
-6364.1
-9463.5
-9038.9
-5242.9
504.55
6045.8
9300
9048.9
5392.8
-293.21
-5879.7
-9277.7
-9213.9
-5704.2
-52.969
5626.6
9199
9310.5
5906.6
259.55
-5509
-9228.7
-9500
-6219.8
-618.01
5205.1
9065.8
9515.1
6383.4
848.27
-5006.8
-8978.3
-9575.9
-6583
-1130.4
4738.2
8836.4
9644.5
6865.9
1532.8
-4369.9
-8632.8
-9644
-7003.7
-1691.2
4295.4
8697.6
9857.9
7347.1
2119
-3858.6
-8344.5
-9659.2
-7308.7
-2169.9
3834.7
8456.7
9968.3
7812.4
2807.8
-3164.6
-7869
-9546.4
-7567.2
-2666.3
3323.4
8150.7
9991.8
8144.2
3297.5
-2727.4
-7670.1
-9684.2
-8026.3
-3327.3
2647.3
7656.2
9818.7
8320.5
3723.8
-2243.5
-7341
-9661.6
-8344.7
-3889.7
2037.1
7222.4
9723.4
8589.2
4225.3
-1742.7
-7071
-9748
-8764.6
-4500
1430.6
6797.2
9597.5
8796.5
4698.7
-1169.3
-6620.1
-9611.9
-9012.8
-5037.5
821
6352.4
9470.5
9006.5
5145.8
-653.08
-6214.3
-9458.8
-9175.5
-5470.5
270.37
5895.6
9294.2
9190.8
5626.4
-60.041
-5739.3
-9289.9
-9387.5
-5993.8
-371.91
5378.5
9100.4
9388.6
6125.1
532.17
-5285.8
-9138.9
-9579.5
-6446.6
-921.37
4920.4
8887.4
9493.8
6515.3
1073.9
-4784.9
-8861.7
-9630.9
-6810.1
-1460.5
4415
8621
9586.4
6948.8
1691.2
-4222
-8576.8
-9738.9
-7268.5
-2088.6
3858.9
8339.3
9665.8
7337.7
2234
-3717.5
-8273.1
-9726.6
-7549.1
-2573.3
3334.6
7976.3
9628.3
7668.9
2811
-3144.8
-7964.3
-9818.8
-7993.5
-3174.9
2810.9
7706.3
9684.5
8025.6
3363
-2564.9
-7553
-9734.6
-8276.1
-3707.1
2259.6
7371.2
9698.6
8373
3905
-2025
-7202.9
-9698.9
-8575
-4238.3
1694.3
6989.6
9645.1
8660
4418.7
-1468.6
-6790.8
-9569
-8779.8
-4719.2
1106.5
6525.6
9500
8896.5
4932.2
-897.2
-6389.3
-9479.8
-9020.8
-5196.6
560.71
6105.8
9367.6
9113.9
5421.2
-335.97
-5991.7
-9410.9
-9307.4
-5729.9
-31.597
5651.7
9202.3
9301.3
5910.3
289.4
-5462.6
-9186
-9474.3
-6213.4
-630.73
5170.3
9007.1
9440
6308.4
787.61
-5051.5
-9016.2
-9615.3
-6623.2
-1167.5
4699
8776.7
9547.2
6736.1
1404.9
-4452.5
-8651.7
-9625.1
-7003.6
-1759.6
4147.6
8499.9
9654.5
7168.4
1970.6
-3985.6
-8461.2
-9776
-7439.9
-2333
3628.9
8213.8
9708.3
7555.8
2562.4
-3404.3
-8111.3
-9794
-7817.6
-2919
3064.9
7883.7
9720.3
7878.6
3049.1
-2951.4
-7867
-9854.1
-8172.8
-3457.9
2523.7
7534.3
9697.9
8199.5
3593.4
-2395.7
-7517
-9843.8
-8505.2
-4013.8
1937.7
7123.6
9619.2
8508.3
4211.4
-1672.9
-6953.3
-9652.9
-8751.4
-4578.9
1298.3
6670
9521.4
8793
4768.3
-1044.3
-6476.1
-9498.9
-8974.4
-5084.8
720.59
6258.5
9435.7
9049.7
5248.3
-530.96
-6112
-9402.8
-9175.1
-5517.2
201.5
5840.2
9284.7
9240.1
5720.6
45.473
-5657.1
-9249
-9383.4
-6007.4
-382.98
5383.1
9127.1
9440.9
6203.2
627.5
-5193.8
-9075
-9557.6
-6458.7
-943.51
4909.9
8894
9509.7
6535.4
1105.7
-4730.4
-8789.2
-9567.4
-6786.3
-1481.9
4379.9
8619.6
9643.5
7044.6
1775
-4193.8
-8609.9
-9801.7
-7318.8
-2100.5
3886.6
8394.7
9737.4
7416.1
2304.8
-3677
-8282.6
-9783.5
-7621.3
-2615.1
3350.6
8037.2
9689.3
7688.2
2781.8
-3192.8
-7995.4
-9824.2
-7994.9
-3196.6
2772.5
7682.9
9703.3
8076.5
3398.8
-2593.9
-7661.4
-9893.7
-8437.8
-3834.1
2181.6
7340.2
9705.2
8401.1
3931.4
-2021.5
-7228
-9740
-8616.8
-4280.9
1635.9
6908.3
9559.6
8604.8
4409.7
-1457
-6810.4
-9653
-8911.8
-4847
1024
6483.7
9456.3
8809.8
4791.2
-1081.3
-6612.3
-9760.1
-9381.7
-5635.4
82.73
5640.3
8946.8
8743.3
5103.4
-569.21
-6074
-9265.1
-8870.8
-4955
1134.6
7272.7
11314
11845
8697.2
3037.4
-3023
-7204.3
-7943.2
-5020.7
347.45
6004.1
9711.9
10016
6770
1163.1
-4744.5
-8779.2
-9452.9
-6519.5
-1082.3
4807.5
8922.9
9707
6862.4
1455.6
-4490.9
-8756.3
-9746.1
-7086.5
-1771.5
4201.3
8579.2
9709.9
7169.8
1919.4
-4068.3
-8554.3
-9866.4
-7514.7
-2372.2
3642.5
8272.7
9770.2
7564.3
2488.1
-3536.6
-8235.4
-9848.5
-7788.3
-2844.2
3127.1
7898.6
9696
7849.7
3042.8
-2936.6
-7854.6
-9864.2
-8201
-3480
2527.8
7558.9
9713.9
8180.6
3542
-2448.4
-7536.6
-9820.5
-8456.6
-3963.7
1980.3
7160.5
9642
8488.3
4119.3
-1832
-7126.5
-9768
-8764.3
-4501.1
1414.5
6767.6
9562.7
8756.4
4639.9
-1262
-6743.3
-9736.7
-9101.7
-5073.1
821.92
6354.2
9450.9
8975.8
5134.7
-624.7
-6158.3
-9409
-9157.7
-5480.5
259.64
5906.9
9324.5
9214.4
5618.2
-103.57
-5797.2
-9332
-9392
-5955.8
-299.93
5469.1
9192.2
9464.9
6175.2
557.89
-5266.9
-9100
-9499.6
-6325.1
-780.56
5048.2
8981.3
9558
6575
1155.8
-4670.6
-8724.5
-9486.1
-6662.2
-1299.2
4601.9
8830.9
9796.8
7130.5
1829.8
-4113.3
-8462.4
-9580.4
-7045.2
-1806
4174.5
8656.4
9960.6
7598.6
2456.7
-3535.3
-8129.5
-9605.5
-7415.6
-2385.5
3599
8297.5
9948
7922.5
2967.7
-3064.6
-7906
-9729.5
-7848.5
-2981.1
3029
7919.7
9865.5
8151
3421.9
-2562.2
-7575.4
-9743.9
-8245.6
-3631.8
2364.5
7478.5
9777.2
8398.8
3873.2
-2090.5
-7257.5
-9702.4
-8519.9
-4155.5
1758.8
7007.6
9619.2
8608.3
4351.2
-1555.3
-6896.5
-9672.5
-8844.4
-4720.4
1159.2
6593.1
9539.2
8883
4862.9
-1013.3
-6534.9
-9624.3
-9121.2
-5218.6
613.89
6185.6
9409
9081.8
5335.1
-420.84
-6029.8
-9397.1
-9268.2
-5691.2
2.3878
5689.4
9240.1
9313
5865.7
183.06
-5599.1
-9301.4
-9529.7
-6203.5
-580.8
5223.6
9036.9
9440.4
6294.1
783.46
-5026.3
-8962.5
-9555.5
-6585
-1160.4
4692.5
8783.1
9571.5
6747.7
1359.1
-4572.4
-8810.8
-9757.2
-7060.1
-1743.4
4191.2
8524.2
9643
7132.4
1924.1
-4041.5
-8527.2
-9836.4
-7465
-2306
3687
8252.2
9682.7
7462
2438
-3507.7
-8158.1
-9775.1
-7744.9
-2818.7
3154.9
7924
9692.6
7805.7
2987.5
-2948.9
-7790
-9740.4
-8075
-3403.6
2543.2
7542.7
9707
8205.1
3592.7
-2391.4
-7488.9
-9782.7
-8418.4
-3915.5
2035.9
7209.8
9671.4
8498.9
4129.7
-1799.9
-7067.4
-9699.6
-8713
-4479.9
1414.3
6763.2
9560.8
8750.2
4623.7
-1277.5
-6735.3
-9690.7
-9027.1
-4996.5
877.17
6379.8
9447.2
8939.9
5062.3
-723.05
-6248
-9447.8
-9129
-5411.4
316.1
5912.5
9282.4
9158.5
5578.8
-122.6
-5809.6
-9343.7
-9391.9
-5933.6
-271.92
5461.1
9113.3
9323.3
6023.1
452.31
-5310.5
-9116.9
-9540.2
-6407.1
-876.62
4977.8
8943.1
9513.8
6475.4
986.23
-4876.9
-8918
-9643.7
-6800
-1447.5
4431.4
8650
9618.5
6948.6
1626
-4344.7
-8704.5
-9812.1
-7267.2
-2041.5
3908.4
8372.2
9689
7349.8
2200
-3844.1
-8496.3
-9977.8
-7722.1
-2601.1
3429.3
8101.9
9698.1
7660.6
2763
-3185.2
-7985.5
-9840.7
-8029.5
-3206.5
2818
7762.8
9756.9
8055.8
3310.5
-2695.5
-7718.6
-9882.7
-8371.3
-3741
2271.5
7397.8
9704.2
8334.6
3828.2
-2104.3
-7240
-9671.8
-8502.2
-4166.6
1721.9
6959.3
9569.7
8557.9
4297.1
-1608.9
-6938.5
-9695.3
-8854
-4734.1
1126.2
6541.1
9487.7
8859.8
4886.3
-949.42
-6462.3
-9583.7
-9136.8
-5280
546.41
6152.7
9422.7
9118.7
5358.5
-429.08
-6055.6
-9409.6
-9248.8
-5648.3
43.136
5707.8
9235.1
9297.9
5854.3
179.75
-5598.6
-9304.2
-9539.8
-6218.8
-592.2
5228.3
9063
9474.7
6305.3
740.08
-5130
-9095.3
-9666.3
-6638.8
-1162.4
4704.4
8771.5
9527.6
6691.8
1316.3
-4595.2
-8824.8
-9772.8
-7072.8
-1741.6
4206.5
8532.2
9621.3
7082.3
1875.9
-4055.4
-8506.6
-9818.3
-7488.9
-2370.1
3633.8
8268.4
9777.7
7578.5
2492.8
-3558.9
-8289.6
-9918.6
-7844.4
-2862.3
3148.4
7938.1
9726.1
7854.4
3025.1
-2960.4
-7865.7
-9850.4
-8162.3
-3428.6
2574.7
7592.2
9740.9
8216.7
3590.4
-2409.2
-7538.8
-9874.3
-8531.4
-4006.5
2000.5
7224.7
9698.4
8500.3
4098.4
-1841
-7092.3
-9703.9
-8715.3
-4500.5
1374.1
6725.1
9554.6
8792.7
4706.3
-1186.2
-6674.8
-9689.2
-9088.1
-5097.6
773.48
6311.7
9441.2
9003.4
5179.8
-590.11
-6150.5
-9426.9
-9191.9
-5525.3
204.67
5844.4
9265.9
9177.3
5615.6
-72.323
-5748.1
-9290.3
-9383.4
-6000.3
-407.92
5302.4
8991.5
9273.7
6039.6
498.75
-5276.7
-9130.8
-9628.2
-6587.6
-1153.5
4622.1
8544.1
9109.3
6090.7
630.64
-5203.8
-9221.8
-9934.6
-7085.5
-1708.6
4268.5
8718.1
10070
7894.1
3085.5
-2435.4
-6452.9
-7332.9
-4682.5
497.81
6225.5
10316
11205
8505.3
3136.4
-3009
-7734.9
-9340.8
-7265.9
-2323
3592.8
8225.3
9819.6
7781.9
2885.5
-3036.3
-7779.5
-9583.6
-7780.8
-3046.8
2843.8
7677.2
9631.3
7963.2
3289.8
-2642.9
-7613.9
-9759.2
-8271.9
-3709.8
2211.9
7267.2
9559.1
8232.8
3789.8
-2105.3
-7248.1
-9714
-8575.6
-4255.9
1621.3
6839.8
9432.4
8429.7
4223
-1597
-6848.4
-9574.6
-8762.7
-4712.2
1071.9
6428.3
9340.3
8700.2
4739.9
-1047.9
-6478.3
-9508.5
-9008.9
-5178.1
544.26
6019.7
9204.1
8904.7
5228.4
-448.65
-5990.6
-9307.7
-9151.9
-5590.1
28.467
5592.8
9027.4
9061
5687.7
161.82
-5462.5
-9084.3
-9335.3
-6101.6
-584.86
5137.9
8900.6
9278
6132.6
661.26
-5070.2
-8913.6
-9441.3
-6467.4
-1106
4643.8
8634.7
9366.2
6550
1232.5
-4588.1
-8714.4
-9588.5
-6887.9
-1642.4
4168.8
8373
9416
6927.4
1843.5
-3943.4
-8277.6
-9531.5
-7215.4
-2178.4
3692.2
8177.3
9576.6
7365.5
2394
-3449.1
-7965.2
-9473.9
-7427.4
-2596.5
3223.1
7869.7
9608.9
7781.1
3060.6
-2783.3
-7548.6
-9436.9
-7735.6
-3084.3
2773.7
7647.5
9714.6
8198.5
3663.8
-2185.2
-7141.5
-9333.2
-7940.7
-3504.9
2292.3
7277.9
9602.1
8412.3
4152.3
-1602.1
-6712.9
-9263.6
-8281.7
-4124.2
1642.6
6838.1
9503.2
8642.5
4587.3
-1142.8
-6410.3
-9248.3
-8590.4
-4677.8
1016.3
6338.1
9278
8740.1
4948.2
-661.96
-5998.5
-9088
-8787.4
-5196.2
366.47
5825.4
9113
8961.8
5410.7
-197.07
-5734.4
-9115.7
-9087.1
-5680.9
-181.25
5361.5
8884.3
9069
5836.7
390.87
-5225.2
-8897.9
-9246.5
-6144.7
-761.96
4882.6
8675.9
9195.7
6240.8
911.44
-4795.2
-8733.4
-9421.3
-6603.1
-1342.6
4384.5
8436.6
9305.1
6671.4
1522.3
-4216
-8394.3
-9445.6
-6974.7
-1909.2
3850.3
8144
9361.3
7041.9
2050.1
-3743.5
-8159.7
-9532.8
-7345.4
-2426.1
3369
7864.5
9384.8
7371.6
2580.6
-3203.3
-7823
-9545.3
-7712.4
-3000.8
2822.2
7564.3
9441
7750.4
3131.2
-2684.2
-7519.2
-9561.7
-8041.2
-3524.8
2286
7197.1
9359
7973.4
3584.7
-2145.1
-7074.2
-9376.2
-8200.6
-3977.9
1731
6796.9
9308
8299.5
4138
-1606.6
-6762.2
-9388.8
-8511
-4470.8
1215.4
6425.3
9213.9
8532.5
4626.5
-1042.6
-6340.2
-9267.1
-8723.8
-4924.9
692.02
6019.2
9069.5
8709.7
5073.8
-487.06
-5899.4
-9135.7
-8975.1
-5471
62.865
5546.3
8919
8916.1
5540.6
58.016
-5478.8
-8996
-9173.8
-5941.5
-507.21
5092
8754
9102.6
6006.9
632.7
-4996.9
-8765.6
-9263.3
-6314.3
-1036.2
4588.7
8458.4
9130.9
6353.4
1154.9
-4528.9
-8567.8
-9434.4
-6789.3
-1624.1
4110
8247.7
9237.1
6723.3
1667
-4028.8
-8234.4
-9381.5
-7042.1
-2090.8
3617
7938
9250.5
7067.8
2217.9
-3476.2
-7884.6
-9364
-7363.8
-2629.1
3070.9
7598.2
9247.1
7393.4
2736
-2967.7
-7571.4
-9352.3
-7653
-3118.4
2552
7238.5
9189.4
7674.6
3262.5
-2390.3
-7160.4
-9257.5
-7895.9
-3587
2055
6915.6
9169.3
7963.9
3745.7
-1902.5
-6856.8
-9255.6
-8203.7
-4105.5
1494.6
6496
9027.5
8142.8
4174.5
-1387.3
-6451.6
-9114.9
-8381.9
-4537.8
968.03
6076.3
8887.5
8361
4693
-754.93
-5951.6
-8946.6
-8604.5
-5044.2
397.7
5672.2
8796.6
8601.7
5163.8
-231.05
-5567.2
-8845.7
-8830.2
-5516.9
-146.75
5258.7
8664.7
8796.4
5614
316.81
-5113.6
-8650.5
-8970.8
-5948.3
-711.13
4771.5
8431.3
8891.5
5992.1
840.28
-4624.7
-8367.3
-9004.7
-6302.8
-1256.1
4266.5
8198
9042
6453.9
1397
-4213.9
-8251.1
-9196.6
-6714.8
-1757.8
3812.9
7925.2
9053.5
6772.2
1917.4
-3707.1
-7990.9
-9311.5
-7159.8
-2342
3328
7721.6
9198.9
7214.8
2512.4
-3155.9
-7673.3
-9342.6
-7525.9
-2898.2
2797.4
7410.2
9204.5
7519.7
3010.9
-2614.9
-7249.4
-9168.9
-7666.2
-3304.7
2289.6
7026.7
9127.6
7793.1
3512.5
-2112
-6966.4
-9223.5
-8034.4
-3847.2
1764.4
6694.4
9093.9
8061.7
3980.7
-1623.1
-6649
-9208.4
-8337.6
-4364.4
1213.9
6298.7
8984.8
8277.2
4457.2
-1034.8
-6144.2
-8967.6
-8456.4
-4801.8
634.06
5819.9
8809.9
8474.6
4931.4
-492.13
-5756.4
-8881.5
-8697.2
-5281.9
73.913
5360.8
8606.2
8607.6
5373.4
115.11
-5201.4
-8584.1
-8757.9
-5649
-421.49
4956.7
8459.8
8773.2
5785.9
621.42
-4793.7
-8448.8
-8989
-6211.9
-1150.7
4293.9
8054.2
8681.6
5914.7
793.19
-4742.7
-8604.8
-9352.2
-6715
-1663.5
3971.9
8172.7
9459.8
7435.1
2942.5
-2230.2
-6026.1
-6921.4
-4527.6
258.99
5618.1
9510.2
10439
7991.4
2983.1
-2825
-7350.2
-8949.8
-7050.2
-2389.3
3248.8
7717.9
9332.4
7498.7
2916.7
-2700.5
-7265.2
-9080.4
-7467.1
-3027.9
2564.1
7194.2
9114.4
7610
3258.6
-2306.9
-7016.4
-9122
-7829.7
-3596.3
2017.4
6905
9205.2
8027.4
3811.9
-1837.3
-6781.2
-9169.6
-8129.9
-4070.6
1488.5
6478.3
9037.4
8201.5
4276.9
-1260.9
-6321.9
-9002.3
-8309.6
-4525.5
922.52
6006.8
8847.2
8389.9
4791.7
-625.88
-5846.3
-8902.5
-8625.2
-5103.3
338.67
5644.5
8812.9
8656.6
5242.9
-140.43
-5473.6
-8760.3
-8772.7
-5509.2
-194.88
5178.6
8599.9
8790.4
5681
436.39
-4979.6
-8538
-8904.3
-5941.2
-760.67
4693.9
8378
8911.4
6092.4
972.92
-4531.6
-8353.6
-9048.9
-6345.6
-1254.9
4307.4
8248.2
9091
6530
1536.2
-4013.3
-8039.1
-9033.2
-6622.6
-1712.3
3851
7976
9119.1
6864.6
2070.5
-3466.3
-7682.7
-9008.2
-6937.6
-2222.9
3388.9
7792.8
9317.2
7372.5
2690.5
-2952.6
-7422.8
-9043.5
-7218.9
-2639.7
2985.3
7561.2
9375.8
7739.2
3256.3
-2385.3
-7051.6
-8980.7
-7456.2
-3066.9
2535.8
7268.2
9382.4
8098.4
3887.3
-1690.7
-6549.1
-8852.4
-7719.2
-3571.6
2022.2
6950.4
9362.4
8358.7
4314.1
-1267.7
-6307.7
-8916.1
-8101.7
-4158.8
1429
6548.9
9269.1
8574.3
4739.9
-789.85
-5952
-8829.3
-8352.6
-4696.4
775.06
6005.9
9018.6
8668.1
5083.4
-381.82
-5669.4
-8798.3
-8605.8
-5173.5
209.94
5529.9
8793.7
8773.8
5470.2
116.07
-5282.3
-8698.5
-8848.8
-5675
-367.25
5081.9
8625.9
8933
5888.2
636.54
-4848.7
-8509.2
-8974.3
-6073.4
-897.51
4610.7
8385.3
9010.8
6253.5
1148
-4391
-8287.1
-9078.7
-6465.1
-1420.6
4164.4
8187.9
9127
6619.2
1608.3
-4012.6
-8124.1
-9187.6
-6819.7
-1920.1
3680.5
7903.3
9182.4
7035.7
2248.3
-3401.9
-7794.5
-9264.5
-7245.2
-2497.1
3181.1
7644.2
9219.4
7331.1
2701.5
-2932.2
-7466.9
-9210.3
-7506.6
-2984.7
2668.7
7333.8
9253.9
7699.9
3250.1
-2424.2
-7188.9
-9252
-7840.2
-3489.6
2160.2
6987.1
9184.5
7935.8
3713.7
-1899.9
-6804.6
-9164.1
-8093.7
-3995.7
1588.2
6557.7
9047.9
8131.4
4161.3
-1370
-6393.1
-9032.3
-8298.8
-4458.6
1061
6196.2
9016
8449.3
4695.9
-841.75
-6082.9
-9051.8
-8626
-4963.6
554.04
5846.3
8925
8647.1
5137
-275.6
-5567
-8773.1
-8707.1
-5389.8
-45.812
5334.5
8725.4
8830.8
5591.5
223.91
-5241.5
-8741.4
-8966
-5842.5
-544.89
4952.1
8601.4
9034.3
6072.8
812.11
-4774.1
-8576.8
-9160.5
-6314.8
-1126.5
4447
8321.8
9059.1
6388.5
1305.2
-4291.4
-8296.6
-9194.5
-6643.2
-1613.4
3988.1
8056.9
9087.6
6721.5
1852.6
-3715
-7922.5
-9197.8
-7036.8
-2215.2
3471
7868.2
9293.6
7196.2
2374.7
-3337.6
-7786.1
-9312.7
-7365.8
-2686.8
2976.4
7516
9238.6
7493.9
2926
-2756.9
-7418.5
-9302.5
-7699.5
-3215.4
2462.1
7202
9228.9
7783.2
3402.1
-2278.5
-7130.3
-9328.8
-8043
-3754.5
1923.1
6857.1
9202.6
8091.2
3945.1
-1688.8
-6712.4
-9248.2
-8335.3
-4298
1357
6497.2
9173.6
8371.6
4401.7
-1227.4
-6393.5
-9166.3
-8522.1
-4711.1
843.64
6071.8
9018.7
8575
4900.2
-628.05
-5931.4
-9017.9
-8733.3
-5189.8
283.86
5641.7
8878.8
8776.1
5359.7
-96.982
-5543.7
-8927.3
-8974.5
-5674.7
-275.91
5196.1
8700
8933.2
5805.9
475.44
-5073.4
-8758.5
-9181.8
-6169.8
-851.65
4764.9
8560.8
9111.7
6220.7
981.3
-4640.4
-8540.8
-9261.4
-6532.6
-1378.1
4267.2
8286
9177.3
6617.4
1573.5
-4066
-8196.1
-9273.7
-6889.2
-1925.6
3760
8024.6
9249.3
6961.2
2020
-3708.2
-8063.6
-9412.3
-7258.2
-2419.7
3286.6
7729.3
9255.9
7303.4
2603
-3092.7
-7658.2
-9382.6
-7608.5
-2987.6
2750.6
7441.5
9306.9
7638.5
3070.6
-2668.3
-7422.6
-9425.3
-7948.1
-3555.4
2111.2
6932.3
9085.4
7729.1
3341.5
-2438
-7426.8
-9743.5
-8532.5
-4273.4
1433.5
6489.3
9070.8
8280.5
4466.2
-890.4
-5692.8
-8004.5
-6807.6
-2435.3
3525.1
8843.9
11521
10553
6298.8
310.66
-5253.8
-8423.1
-8117.9
-4534.7
928.94
6186.8
9236.8
8908.5
5302.3
-246.18
-5666.4
-8928.7
-8808.7
-5353
133.78
5580.9
8937.7
8947.8
5616.6
197.19
-5285
-8786.4
-9000.4
-5844.5
-498.06
5030.1
8655.9
9011.4
5965.2
667.79
-4890.1
-8629
-9153.9
-6268.2
-1046.7
4558.5
8442.2
9137.4
6375.7
1193
-4463.8
-8473.7
-9337.5
-6733.1
-1631.7
4060.8
8209.3
9249.1
6783.3
1743.2
-3963.7
-8185.3
-9344.3
-7025.4
-2112.7
3556
7873.4
9235.6
7131.4
2338.1
-3356.7
-7817.8
-9366.5
-7417.1
-2698
3025
7610.4
9337.3
7546.2
2892.4
-2885.5
-7609.6
-9489.7
-7813.1
-3221.9
2539.6
7299.8
9284.8
7773.5
3347.1
-2338.2
-7164.4
-9329.4
-8015.3
-3702.2
1998.9
6944.9
9269.2
8091
3850.7
-1857.3
-6887.7
-9352.9
-8331.2
-4209.7
1465.3
6571.6
9204.8
8387.1
4427.7
-1192.5
-6369.9
-9160.4
-8509.5
-4655
956.09
6212.8
9140.6
8646.2
4923.8
-626.32
-5926
-8991.6
-8670.4
-5072.2
463.28
5861.3
9091.9
8939.9
5466.8
-15.528
-5445.3
-8787.3
-8791.1
-5452.8
-14.843
5493.1
9008.3
9208.6
6014.1
623.51
-4935.5
-8572.5
-8922.4
-5858.7
-536.08
5046.1
8796.7
9316.6
6420.1
1199.5
-4388.4
-8256
-8961.1
-6241
-1110.1
4512.5
8513.1
9374.2
6753.8
1625.8
-4081.3
-8217.4
-9229.8
-6749.4
-1720.5
3964.8
8178.3
9345.7
7028.6
2089.2
-3625.2
-7969.4
-9309.3
-7144.6
-2298.9
3396.7
7802
9272.2
7265.3
2534.3
-3156.9
-7685
-9354.2
-7531.2
-2892.4
2822.5
7464
9286.3
7607
3060.1
-2648.6
-7382.8
-9372.5
-7871.2
-3435.7
2275.9
7120.3
9272.7
7918.5
3565.6
-2146.2
-7066.5
-9348.3
-8142.2
-3909.5
1758.6
6741.1
9178.7
8163.9
4075.5
-1561.6
-6640.5
-9255.5
-8417.4
-4431.4
1209
6379.6
9128.4
8416.5
4512.3
-1112.3
-6341.3
-9214.5
-8661.4
-4897.3
663.26
5939.3
8961.4
8605.3
5009.9
-476.5
-5799.6
-8966.6
-8790.5
-5334.7
109.78
5505.8
8831.1
8835.8
5512.5
101.87
-5368.7
-8844.7
-9016.7
-5816.6
-445.8
5075.2
8669.5
8987.5
5914.7
611.1
-4929
-8628.3
-9104.6
-6185.7
-970.08
4585.7
8400
9045.1
6281.8
1147.7
-4432.7
-8370.4
-9194.4
-6598.6
-1553.5
4058.7
8144
9174.2
6755.3
1778.8
-3902.1
-8158.2
-9382.3
-7101.5
-2166.4
3564.1
7927.4
9280.6
7123.5
2281.5
-3416.9
-7834.3
-9325.1
-7342.3
-2633.1
3042.3
7564
9239.3
7434.9
2819.3
-2881.9
-7529.5
-9374.9
-7720.8
-3185.6
2527.5
7272.2
9267.4
7767.6
3342.8
-2340.3
-7148.8
-9285.9
-7960.6
-3676.6
1961.7
6846.4
9148.5
7999.2
3821
-1820.6
-6801.3
-9243.4
-8230
-4150.4
1457.1
6493.3
9083.4
8264.6
4336
-1249.3
-6410.1
-9205.6
-8569
-4726.3
877.48
6127
9045.4
8543.2
4819.8
-721.54
-6001.7
-9038.2
-8685.7
-5073.3
434.98
5755.4
8882.1
8651.7
5171.5
-240.98
-5565.2
-8824.8
-8805.6
-5501.4
-128.93
5305.3
8749.1
8889
5663
289.31
-5203.1
-8750.1
-9028.1
-5941.1
-649.76
4862.1
8526.8
8970
6032.4
828.2
-4683.7
-8444
-9059.6
-6306.7
-1203.5
4360.7
8307.9
9137.8
6504.9
1377.6
-4310.2
-8398.9
-9340.8
-6792.8
-1730.9
3938.7
8101.6
9214.8
6868.3
1936.4
-3738.8
-8028.8
-9319.8
-7126.5
-2275.4
3411.8
7805.6
9262.1
7230.1
2458.3
-3273.3
-7810.3
-9436.8
-7534.6
-2825.4
2908.3
7510.7
9269
7544.2
2991.7
-2690.2
-7385.5
-9336.8
-7801
-3339.8
2377.5
7198.4
9303.5
7898.1
3512.1
-2202.2
-7094.8
-9326.4
-8060.5
-3777.9
1907.7
6862.4
9236.8
8153.9
4026
-1606.8
-6647.2
-9213.3
-8337.3
-4336.9
1291.3
6428.8
9137.9
8398.5
4489.7
-1122.4
-6339.6
-9212
-8660.9
-4884.9
703.78
6001.1
9007.4
8592.8
4926.8
-596.54
-5899.1
-9002.9
-8759.2
-5262.1
189.71
5566.9
8857.3
8819.6
5458.3
30.597
-5426.4
-8864.9
-8995.9
-5770.5
-397.93
5103.7
8661.9
8932.4
5813
484.04
-5044.6
-8700.9
-9130.4
-6194.2
-1010.2
4465.7
8166.5
8687.7
5822.1
644.53
-4899.2
-8736.4
-9444.9
-6761.6
-1651
4058.5
8326.7
9629.1
7528.2
2878.1
-2457.8
-6317
-7109.2
-4470.8
595.81
6147.4
10077
10903
8284.1
3115.5
-2791.7
-7339.9
-8896.7
-6914.7
-2170
3512.9
7959.9
9484.8
7522.2
2814
-2889.9
-7482
-9262.7
-7561.4
-2998.9
2720.8
7438.3
9360.3
7753.6
3227.4
-2506.2
-7290.4
-9337.3
-7891.5
-3503.9
2177.1
7021.3
9212.8
7931.9
3662.5
-1992.6
-6915.3
-9265.6
-8165.3
-4022.7
1618
6648.2
9178.9
8248.7
4193
-1472.9
-6618.7
-9302.9
-8511.7
-4545.4
1096.9
6290.8
9092.1
8464.6
4657.6
-897.64
-6124.7
-9071
-8633
-4971.7
538.44
5822.7
8891.1
8595
5056.9
-386.83
-5697.5
-8895
-8786
-5402.5
2.6316
5410.5
8786.2
8851
5575.4
192.58
-5273.7
-8776.6
-9009.2
-5883.7
-562.84
4964.4
8617.5
9010.6
5991.2
707.78
-4834.5
-8550.5
-9065.3
-6210.2
-1058.2
4483
8360.6
9118.2
6441.9
1305.8
-4366.8
-8427.6
-9336.2
-6755.5
-1669
4010.9
8167.8
9258.4
6871.1
1882.8
-3847.4
-8158.5
-9408.6
-7116.5
-2154.2
3596.3
7974.4
9359.2
7258.9
2473.1
-3210.2
-7669.8
-9232.3
-7302.8
-2600
3108.2
7676.5
9394.4
7625.1
3032.9
-2667.5
-7343.5
-9233.4
-7610.5
-3071.6
2677.2
7469
9506.9
8042.7
3645.1
-2031
-6866.1
-9056.9
-7778.8
-3498.8
2185.1
7135.6
9485.1
8346.9
4149.8
-1532.6
-6578.3
-9106.7
-8172.7
-4119.5
1538
6671.4
9340.3
8535.1
4563.3
-1074.8
-6264.2
-9072.6
-8462.8
-4666.6
900.79
6156.5
9119.8
8660.6
4941.1
-636.03
-5962.3
-9031.7
-8700.2
-5106.6
393.21
5739.1
8933.1
8781.1
5339.2
-103.12
-5505.7
-8845.1
-8874.2
-5585.4
-208.52
5248.1
8741.3
8953.2
5790.1
430.28
-5111.4
-8745
-9102.4
-6056.1
-759.41
4797.1
8535.9
9063.4
6183.7
970.6
-4627.4
-8511.8
-9222.8
-6492.2
-1346.8
4280.7
8282.3
9165.6
6607.2
1568.2
-4066.7
-8190.9
-9260
-6869.5
-1909.7
3762.3
8014.8
9240.7
6967.4
2042.3
-3680.6
-8041.6
-9398.3
-7248.7
-2414.5
3282.3
7712.9
9233.9
7287.6
2599.2
-3088.4
-7652.5
-9376.5
-7600.5
-2982.8
2740.5
7414.2
9284
7655.9
3147.1
-2554
-7318.9
-9365.8
-7921.9
-3519.1
2194.6
7069
9265.6
7957.8
3643.1
-2050.9
-6986.2
-9317.2
-8176.3
-3991.9
1672.3
6699.1
9205.8
8249.2
4181.9
-1475.5
-6602.1
-9271.4
-8477.4
-4516.1
1122.9
6316.8
9110.8
8455.7
4600.1
-1006.8
-6262.3
-9196.5
-8708.1
-4976.8
599.98
5927.5
9002.5
8671.8
5069.1
-440.04
-5781.1
-8954.6
-8781.4
-5333.8
98.303
5487.3
8817.8
8836.6
5526
119.62
-5354.7
-8837.7
-9017.7
-5827.7
-469.14
5044.3
8646.7
8995.1
5968.7
707.84
-4817.8
-8545.3
-9084.4
-6230.9
-1043.3
4544.4
8436.1
9156.3
6415.2
1234.3
-4429.4
-8429.7
-9256
-6610.6
-1509
4123.7
8187.3
9182.5
6748.5
1784.1
-3878.3
-8133.9
-9378.5
-7118.7
-2182.8
3572.2
7964.1
9327.4
7155.8
2287.8
-3428
-7843.3
-9315.7
-7309.5
-2582.8
3097.6
7608.3
9257.6
7420.1
2778.9
-2925.3
-7550.1
-9360.2
-7680
-3142.1
2555.5
7285
9278.6
7784.3
3349.8
-2373
-7238.2
-9412.1
-8071.2
-3720
1999.2
6933.1
9234.3
8053.1
3845.3
-1809
-6796.9
-9256.4
-8265
-4186.3
1458.2
6552.2
9178.6
8344.9
4361.5
-1275.3
-6450.1
-9224.2
-8561.6
-4712.6
881.18
6124.4
9050.8
8561.4
4840.5
-711.84
-6007.6
-9059.2
-8725.3
-5134.1
370.31
5730
8937.4
8782.7
5311.9
-178.65
-5621.8
-8961.9
-8940.4
-5575.4
-145.78
5305.8
8746.5
8905.7
5732.8
407.56
-5091.7
-8712.3
-9089
-6064.7
-764.37
4820.5
8584.5
9107
6187.5
918.42
-4726.2
-8628.3
-9318.1
-6530.2
-1310.7
4374.8
8388.6
9233.3
6613.5
1530.7
-4108
-8205.3
-9244.2
-6838.5
-1876.8
3795.5
8051.1
9277.4
6995.4
2055
-3683.1
-8055.9
-9421.8
-7276.4
-2431.3
3298.5
7774.7
9328.1
7377.3
2649.4
-3085.3
-7672.4
-9384.8
-7579.2
-2940.5
2780.3
7431.8
9273.1
7621.8
3101.9
-2593
-7331.5
-9337.3
-7854.9
-3436.2
2262.4
7102.7
9269.4
7950.2
3637.3
-2058.5
-7006.9
-9350
-8198.6
-3976.1
1730.6
6767.4
9235.2
8213.9
4104.2
-1539.8
-6607.1
-9215.7
-8401.3
-4467.7
1118.6
6261.5
9014.7
8323.1
4433
-1200.8
-6473.3
-9428.1
-8980.6
-5307.5
223.79
5551.2
8675.5
8417.5
4890.3
-521.27
-5690
-8575.1
-8003.9
-4095.5
1809.6
7645.4
11348
11582
8239.8
2528.5
-3432.5
-7411.7
-7951.7
-4954.5
301.76
5708.8
9169.6
9376.2
6248.7
927.43
-4645.2
-8416.1
-8973.6
-6096.3
-866.68
4728.6
8565.6
9200.5
6406.5
1237.3
-4378.7
-8350.3
-9190.4
-6573.4
-1474.5
4183.8
8261.8
9223.2
6717.5
1696.3
-3959.8
-8144.8
-9299.8
-6985.3
-2054.7
3648.2
7975.4
9292.9
7109
2256.5
-3436.3
-7842.2
-9324
-7330.4
-2597.4
3112.5
7653.2
9299.6
7414.4
2705.4
-3041.6
-7652.5
-9396.4
-7633.7
-3039.6
2662.5
7346
9269.4
7719.7
3277.3
-2398.9
-7190.6
-9308.4
-7956.7
-3631.3
2059
6983
9280.8
8071.6
3801.6
-1915.7
-6915.3
-9312
-8216.9
-4060.2
1587.7
6614
9145.9
8239.3
4228.5
-1390.9
-6512.7
-9210.5
-8467.8
-4564.3
1032.7
6224.6
9069.6
8503.6
4734.5
-832.73
-6114.8
-9127.3
-8733.5
-5078.4
464.77
5813.9
8963.3
8734.6
5214.6
-276.67
-5675.9
-8948.4
-8858.2
-5440
13.219
5447.5
8829.8
8908.6
5666.4
312.93
-5163.5
-8720.9
-9015.6
-5913.4
-562.55
5024.3
8735.8
9175.6
6195.4
936.09
-4621.5
-8404.3
-9007.1
-6199.3
-1012.2
4626.9
8600.1
9398.8
6712
1557.6
-4109.2
-8153
-9068.8
-6532.1
-1497.3
4165.1
8351.4
9491.4
7137.2
2152.7
-3590.3
-7918.3
-9193.6
-6943.9
-2031.4
3692.3
8089.1
9523.1
7454
2637.8
-3138.6
-7709.4
-9346.8
-7430.3
-2694.4
3057.6
7655.1
9387.2
7631.9
3065.3
-2604.2
-7267
-9185.5
-7640.5
-3207.7
2449.3
7203.9
9268.8
7866.2
3513.9
-2169.8
-7062.9
-9324
-8085.9
-3799.1
1922.3
6913.1
9291.9
8182.9
4032.7
-1584.6
-6572.9
-9086.1
-8193.5
-4218.1
1367.7
6469.1
9149.7
8378.7
4440.5
-1171.6
-6336.7
-9120.5
-8496.6
-4710.6
825.87
6056.2
9030.3
8625.4
4976.7
-557.58
-5898.9
-9036
-8788.5
-5251.4
246.67
5644.1
8915
8825.9
5402.5
-70.149
-5527.8
-8911.2
-8951.5
-5647.4
-251.53
5213.7
8714.8
8954
5841.9
531.92
-4996.6
-8669.1
-9097
-6112.5
-840.1
4730.7
8503.7
9067.2
6217
1024.6
-4566.7
-8462.8
-9199.3
-6493
-1356
4281.4
8300.2
9194.6
6636.7
1592.1
-4049.6
-8182.4
-9265.1
-6893.1
-1951.1
3711.8
7970.4
9221.9
6992.7
2119.6
-3565.5
-7926.3
-9326.3
-7242.2
-2457.3
3233.8
7697.3
9258
7325.9
2618.8
-3102
-7688.9
-9414.7
-7626.2
-2994.6
2738.6
7421.4
9303.5
7688.5
3185.5
-2525.4
-7315
-9390.5
-7963.3
-3555.3
2180.7
7077.7
9284.6
7979.6
3679.5
-1977.2
-6869.3
-9187.4
-8086.9
-3977.5
1627.3
6648.1
9191.8
8267
4187.9
-1515.4
-6676.4
-9336.6
-8503.1
-4512.8
1123
6302
9107.5
8500.5
4699.2
-887.41
-6165.3
-9138.8
-8678.3
-4962.9
591.84
5886.2
8939.7
8624.7
5068.7
-404.16
-5758.1
-8990.5
-8877.8
-5446.6
21.43
5469.6
8848.9
8894.6
5596
191.52
-5297.9
-8819.4
-9050.5
-5899
-545.61
4995
8636.8
9012.6
5987.1
699.01
-4871.4
-8640.6
-9195.1
-6320.3
-1087.4
4540.9
8449.7
9173
6445.8
1295.9
-4349.5
-8384.1
-9299
-6741.4
-1655.3
4055.2
8232.4
9288.7
6822.7
1776.9
-3932.4
-8157
-9330.2
-7036.9
-2147
3519
7858.5
9254.2
7173.5
2378.7
-3343
-7841.6
-9417.2
-7468.1
-2723.2
3032.7
7634.1
9352.3
7546.2
2902.4
-2827
-7486.8
-9330.8
-7675.7
-3151.9
2538.8
7263.6
9255.4
7771.2
3366.9
-2311.2
-7141.1
-9316.8
-8020.7
-3730.2
1956.6
6911.9
9270.5
8133.6
3917.1
-1795.4
-6848.7
-9336.1
-8325.3
-4208.8
1455.1
6537.4
9139.9
8300.2
4343.5
-1243.7
-6369.5
-9117.4
-8459.9
-4640.3
920.05
6148.9
9089.5
8627.6
4913.9
-675.97
-6044.4
-9161.3
-8843.3
-5212.5
351.89
5749.2
8960.4
8801
5348.1
-102.72
-5519.8
-8882.5
-8929.7
-5637
-236.37
5241.7
8734.3
8926.8
5745.4
381.49
-5156.2
-8791.6
-9157.1
-6109.1
-787.68
4811.2
8589.6
9138.8
6262.6
1042.2
-4571.5
-8481.3
-9220.9
-6504.7
-1347.3
4308.9
8326.9
9190.8
6581.7
1489
-4174.9
-8295.2
-9336.8
-6907.7
-1906.9
3800
8072
9300.2
7022.6
2100.4
-3615.5
-7986.9
-9387.1
-7297.7
-2499.2
3210.3
7675.2
9192.4
7169.8
2364.1
-3410.8
-7988.1
-9675.4
-7873.8
-3273.5
2417.5
7094.9
9019.1
7462.9
3011.1
-2627.5
-7256.7
-9039
-7206.9
-2347.3
3833.5
9146.2
11706
10606
6248.9
238.36
-5193
-8022.2
-7232.9
-3224.4
2358
7294.6
9665.1
8561.9
4389.2
-1318.6
-6464.6
-9147.4
-8361.4
-4391.1
1270.5
6478.9
9261.4
8573.8
4685.8
-940.2
-6207.2
-9157.5
-8689.7
-4971.2
608.13
5945.1
9021.7
8682.3
5073.8
-427.31
-5755.2
-8931.5
-8784.3
-5365.3
67.006
5493.1
8868.5
8896.9
5544.3
70.261
-5451.4
-8934.3
-9075.4
-5836
-438.27
5100
8713.6
9052.9
5989.6
673.26
-4896.5
-8626.1
-9121.8
-6209.5
-988.62
4588.4
8442
9131.1
6386.9
1223
-4430.7
-8447.4
-9310.2
-6693
-1583
4097.9
8220.2
9241.8
6779.1
1750.1
-3962.8
-8213.8
-9403.4
-7087.2
-2142
3573.7
7926.9
9304.5
7201.6
2399.2
-3319.8
-7819.9
-9404.1
-7462.7
-2720.5
3030.4
7618
9324.2
7528.5
2922.5
-2766.7
-7421.4
-9308.4
-7716.2
-3227.4
2482.7
7266.9
9318.7
7863.9
3454.1
-2248.4
-7102.4
-9290.7
-7993.8
-3694.4
2000.3
6956.4
9314.1
8189.3
4005.7
-1667.7
-6707
-9224.8
-8270.8
-4190.3
1494
6644.5
9317.4
8509.2
4542.1
-1069.4
-6209.9
-8965
-8321.8
-4522.3
1034
6292.5
9285.5
8865.8
5161.9
-440.85
-5817.2
-8923.9
-8591.3
-4962.4
584.05
5971.1
9199.4
9078.1
5656.9
212.19
-5218.5
-8595.5
-8649.7
-5366.9
9.878
5455.5
8926.5
9120
5954.1
600.79
-4941
-8587.9
-8961
-5917.9
-611.18
4954.3
8687.3
9196.2
6297.7
1073
-4534.3
-8432.1
-9155.1
-6421.5
-1254.2
4396.9
8397.5
9243.8
6629
1544.7
-4104.6
-8214.7
-9255.5
-6833.8
-1844.8
3848.9
8105.4
9312
7004.5
2050.2
-3682.7
-8036
-9377.8
-7210.5
-2350.4
3381.2
7837.1
9346.4
7342.2
2578.4
-3152.4
-7696.3
-9351.8
-7507.3
-2862.8
2840.5
7472.4
9303.3
7644.1
3105.2
-2622.4
-7391.8
-9406
-7900.9
-3441.1
2293.5
7146.6
9300.4
7954.3
3616.2
-2092
-7036.8
-9363.9
-8192.4
-3953.5
1761.5
6798.5
9258.7
8221.7
4089.5
-1575.2
-6645.6
-9228.3
-8363
-4374.7
1247.5
6400.6
9150
8455.6
4569
-1056
-6307.9
-9212.6
-8677.6
-4903.6
690.44
6001.2
9034
8655.5
5018.5
-500.64
-5827.4
-8969.8
-8759.2
-5277.3
179.06
5576.2
8893
8872.8
5502.6
33.106
-5482
-8963
-9097.5
-5839.9
-421.51
5123.2
8724.9
9048.2
5978.7
661.28
-4922.8
-8686.8
-9215.6
-6302.3
-1036.2
4601.2
8483.6
9147.2
6346.2
1142.8
-4498.8
-8457.1
-9251.2
-6592
-1482.3
4164.7
8241.6
9228.8
6755.3
1736.8
-3959.3
-8202.3
-9392.9
-7069.6
-2095.5
3658.2
8019.3
9342.7
7137.4
2248.3
-3474.1
-7879.1
-9324.8
-7283.8
-2529.7
3158.5
7658.4
9290.7
7442
2796.2
-2915.7
-7558.1
-9389.3
-7716.3
-3159.4
2577.1
7341
9339.2
7811.9
3323.1
-2445.7
-7324.5
-9474.3
-8085
-3684.3
2065.2
6999.5
9271.7
8042.3
3784
-1903
-6890.5
-9312.8
-8261.2
-4125.4
1547
6628.2
9210.1
8323.3
4300.2
-1352.6
-6520.3
-9268.3
-8562.3
-4657.3
989.86
6258.1
9158.8
8593.2
4776.9
-841.14
-6135.3
-9117.1
-8684.5
-5021.7
488.12
5788.7
8911.1
8694.2
5210.5
-252.57
-5659.1
-8978.5
-8951.8
-5578.3
-123.27
5360.6
8813.2
8944.4
5712.2
330.4
-5188.2
-8779.5
-9094.5
-6006.5
-667.19
4917.2
8641
9098.2
6116.4
819.53
-4802.1
-8641.9
-9264.2
-6436
-1214
4447.8
8427.2
9231.9
6564.2
1433.5
-4230.6
-8308.6
-9284.7
-6802.5
-1789.1
3889.9
8115.1
9295.6
6969.2
1992.9
-3764.9
-8128.1
-9444.8
-7221.2
-2304.7
3447.3
7876.1
9330.8
7278.1
2493.8
-3228.8
-7747
-9369
-7488.2
-2810.4
2910.7
7530.9
9315.6
7587.7
2984.1
-2776
-7530.6
-9488.5
-7909.6
-3386.5
2382.1
7236.1
9363.9
7974.1
3585.2
-2165.5
-7124.9
-9426.1
-8196.3
-3897
1846.1
6863.7
9270.6
8173
3991.7
-1706.1
-6792.9
-9367.1
-8460.5
-4406.9
1274.5
6448.8
9174.1
8433.5
4508.9
-1133.9
-6391.5
-9297.1
-8748.7
-4933.7
719.55
6070.5
9089.1
8645
4935.2
-617.57
-5932
-9051.3
-8846.2
-5407.2
-12.342
5321.9
8572.7
8480.7
5054.2
-415.61
-5855.2
-9213.3
-9232.3
-5890.9
-382.43
5328.6
9208.2
9887.4
7182.3
2193.1
-3096.9
-6592.4
-6916.9
-3948.4
1156.8
6436.5
9873.4
10136
7054.3
1685.3
-4056.2
-8089.1
-8941.5
-6316.8
-1219.5
4419.4
8468
9391.5
6822.8
1703.6
-4057.3
-8293.4
-9403.7
-6972.5
-1931.9
3804.3
8082.8
9323.1
7088.9
2225.5
-3461.3
-7860.3
-9324.3
-7288.3
-2503.9
3226.4
7731.7
9308.6
7371
2658.8
-3057.8
-7647.3
-9401.7
-7662.7
-3069.4
2666.5
7391.3
9321.3
7725
3203.2
-2542.5
-7356.3
-9436.8
-8005
-3593.3
2148.1
7063.3
9301
8020.8
3715.3
-1981.9
-6926
-9272.7
-8160.5
-4014.8
1619.3
6645.4
9183.6
8268.8
4223.8
-1444
-6601.9
-9301
-8521.5
-4559.7
1090.1
6306
9136.2
8526.1
4707.9
-886.63
-6159.3
-9131.1
-8686.9
-4996.1
552.73
5876.7
8982.3
8708.8
5158.3
-344.34
-5743.2
-9015.3
-8927.2
-5502.2
-19.491
5463.2
8884.4
8958.4
5660.1
232.48
-5285
-8823.7
-9060.2
-5908
-547.72
5014.2
8693.1
9105.5
6090.7
778.24
-4831.9
-8623.2
-9165.9
-6260
-1005.5
4622.6
8524.3
9256.3
6558.1
1437.2
-4203.1
-8259.7
-9204
-6659.8
-1564.1
4169.3
8371.9
9454.3
7019.1
2007.1
-3675.8
-7891.1
-9070.1
-6785.5
-1895.6
3779.4
8127.7
9524.5
7438.5
2639.3
-3080.6
-7574.1
-9148.8
-7208
-2478
3265.1
7864
9591.1
7796.6
3151.8
-2603.6
-7312.7
-9209.7
-7583.3
-3046
2692
7463.8
9463.8
7933.9
3451.9
-2289.7
-7131.6
-9265.7
-7908.4
-3579.8
2103.2
7027.5
9358.6
8213.6
3997
-1731.4
-6825.5
-9360.5
-8374
-4240.6
1472.5
6611.8
9256.1
8430.1
4452.7
-1191.8
-6401.2
-9227.6
-8602.7
-4748.8
890.26
6187.8
9144
8647.2
4890.9
-709.76
-6056.3
-9150.8
-8835.7
-5225.2
332.26
5752.2
8997.5
8851.4
5378.7
-105.7
-5542.1
-8902.6
-8942.1
-5650.7
-253.46
5238.4
8767.2
8998.3
5832.1
454.5
-5107.1
-8756.7
-9127.2
-6092
-799.93
4765.7
8528
9082.9
6217.7
994.26
-4637.5
-8565
-9308.6
-6584.9
-1415.6
4258.6
8310.6
9222.9
6652.8
1561.1
-4142.3
-8311.4
-9373.2
-6929.3
-1908.6
3791.2
8032.4
9244.5
6999.3
2149.8
-3498.8
-7851.6
-9286.7
-7252.8
-2488.8
3229.7
7745.3
9338.7
7394.3
2644.5
-3111.4
-7698.2
-9392.9
-7569.3
-2922.9
2799.7
7457.4
9312.7
7675.7
3158.6
-2553
-7326.5
-9375.7
-7928.6
-3521.1
2196.5
7074
9272.2
7960.2
3632.6
-2080.1
-7030.1
-9363.4
-8211
-4007.2
1676.4
6715.6
9222.8
8252.1
4159.6
-1522.7
-6659
-9315.2
-8491.6
-4499.8
1157.5
6355.1
9144.1
8480.9
4615.3
-1003
-6267
-9202.1
-8707.3
-4969.3
608.24
5933.3
9012.1
8696.3
5110.2
-398.9
-5766.3
-8982.2
-8841.2
-5393.7
70.614
5502
8856.4
8865.6
5520.1
77.799
-5410.1
-8878
-9028.4
-5816.1
-454.49
5048.9
8642.9
8988.6
5951.3
652.84
-4934.6
-8715.5
-9257.9
-6343.7
-1063.1
4594
8494.4
9171.2
6375.9
1165.6
-4499
-8491.4
-9316.7
-6672.2
-1558.8
4099.2
8182
9169.9
6705
1715.5
-3934.7
-8135.3
-9309
-7001.2
-2062.1
3658.4
8001.5
9320.2
7110.7
2206.4
-3543
-7975
-9430.2
-7370.1
-2572.8
3162.2
7688.3
9315.4
7441.6
2776.1
-2930.5
-7543.4
-9339.6
-7646.6
-3092.7
2623.7
7361.4
9335.9
7793.9
3304.4
-2449
-7303
-9431.8
-8035.9
-3640.1
2105.4
7044.2
9322.4
8085.1
3798.5
-1924.5
-6934.3
-9355.2
-8287.4
-4137.4
1539.9
6621.5
9203.2
8308.9
4262
-1424.2
-6610.1
-9340.1
-8589.2
-4649
992.67
6222.9
9094.5
8541.9
4768
-827.05
-6154.1
-9206.7
-8821.1
-5131.7
470.25
5867.6
9029.8
8780.2
5226.2
-296.78
-5728.8
-9044.2
-8998.9
-5598.8
-110.97
5403.2
8867.1
8979.8
5708.3
289.78
-5243.2
-8824.7
-9119.3
-6013.8
-664.36
4925.1
8649.3
9099.1
6102
789.04
-4838.8
-8672.1
-9283
-6450.4
-1233.2
4422.8
8403.5
9212
6533.8
1366.5
-4348.3
-8456.9
-9411.3
-6856.3
-1759.9
3956.3
8145.7
9242
6842.9
1854.3
-3853
-8143.2
-9411.3
-7179.5
-2278.1
3458.8
7875.5
9306.2
7209
2375.5
-3370.7
-7870.9
-9446.5
-7521.4
-2825.2
2883.3
7461.9
9173.3
7338.8
2614.6
-3234.7
-8002.2
-9893.2
-8217.5
-3635.6
2125.6
6947.8
9103.8
7868.2
3764.1
-1618.5
-6179.2
-8073
-6425.5
-1713.6
4373
9566.9
11905
10492
5842
-339.2
-5806.1
-8613.4
-7824.2
-3837.3
1776.6
6866.8
9500.9
8676.5
4686.1
-996.73
-6263.4
-9151.9
-8581.1
-4764.2
861.07
6171.6
9164.5
8717.5
5007.1
-569.12
-5925.4
-9065.2
-8818.9
-5276.9
238
5655.6
8932.2
8825.3
5369.9
-133.26
-5612.5
-9010.4
-9056
-5737.6
-303.3
5207.3
8727.9
8942.2
5778.1
430.4
-5094.4
-8732.2
-9128.4
-6135.5
-866.51
4713
8509.6
9086.3
6213.5
968.3
-4669.7
-8574.2
-9282.3
-6541.4
-1390.2
4242.1
8255.4
9152.5
6591.9
1520.8
-4166.8
-8334
-9408.4
-6982.2
-1968.5
3747.2
8021.1
9254.5
6986.6
2063.9
-3673.3
-8073.3
-9479.6
-7358.8
-2508.5
3244.1
7737
9290.6
7334.5
2610.4
-3111.9
-7693.9
-9420.5
-7638.3
-3006.8
2739.9
7440
9321.1
7673.8
3119.5
-2628.1
-7412.1
-9441.9
-7959.1
-3517.7
2222.6
7112.7
9315.6
7997.6
3647.8
-2100
-7081.5
-9420.1
-8237.1
-3981.7
1743
6788.2
9268.6
8265.7
4164.3
-1496.7
-6601.2
-9241.5
-8425.7
-4448.1
1214.5
6445
9275
8628.3
4738.5
-928.52
-6228
-9155
-8610.3
-4811.6
803.04
6130.6
9193
8863.6
5272.2
-246.97
-5640.8
-8889
-8758.5
-5279.2
249.83
5744.4
9130.1
9135.6
5771.7
314.44
-5187.1
-8680.7
-8869.2
-5685.4
-317.63
5226.3
8863.6
9219.8
6152.7
811.13
-4798.8
-8572.9
-9101
-6191.4
-938.62
4687.1
8574.3
9259.9
6481.9
1282.1
-4385.5
-8394.1
-9246.5
-6633.7
-1540.9
4126.2
8250.1
9284
6828.5
1790.3
-3945.3
-8218.1
-9414.3
-7084.2
-2112.1
3626.9
7980.2
9323.7
7159.5
2296
-3449.5
-7922.7
-9438.5
-7423.3
-2639.6
3104.3
7647.8
9296.3
7448
2801.9
-2911.6
-7566.8
-9422.1
-7768.9
-3211.9
2540.5
7317.7
9317.6
7795.4
3337.6
-2375.8
-7210.7
-9368.7
-8043.5
-3718.9
1997.1
6958
9283.3
8082.7
3807.6
-1920.2
-6936.5
-9362.9
-8306.6
-4177.1
1481.9
6565.2
9178.4
8335.5
4334.4
-1339
-6556.5
-9349.2
-8658.4
-4742.4
921.18
6198.8
9109.9
8571.2
4796.8
-789.99
-6094.5
-9133.3
-8771
-5141.7
398.93
5775.6
8967.1
8766.8
5243.3
-280.62
-5727.1
-9050.4
-9008.4
-5624
-168.66
5317.5
8785.8
8939.7
5719.9
330.81
-5205.2
-8807.7
-9122.9
-6034.8
-706.15
4861
8577
9047.1
6094.9
833.19
-4752.6
-8556.4
-9152.8
-6332.7
-1169
4403.4
8313.8
9113.2
6494.9
1409.1
-4267.2
-8406.7
-9428.5
-6919.5
-1818.7
3935.5
8161.9
9281.6
6906.3
1953.4
-3723.4
-8022.1
-9351.6
-7206.9
-2367.9
3365.1
7829.7
9324.6
7272.5
2450.3
-3314.1
-7848.3
-9459.4
-7557.7
-2861.5
2877.7
7522.5
9338.2
7639.7
3054.9
-2702.2
-7471.7
-9461
-7920.3
-3425.1
2339.3
7208.9
9352.4
7960.1
3552.1
-2215.5
-7173.9
-9460.9
-8222.1
-3929.1
1802
6819.3
9242.4
8165.4
3995.8
-1698.5
-6779.4
-9342.4
-8430.5
-4388.2
1272.7
6438
9175.9
8454
4528
-1141.2
-6425.2
-9328.2
-8750.2
-4912.1
729.67
6045.6
9045.7
8622.5
4949.8
-596.05
-5949.1
-9112.3
-8894.8
-5363.4
166.71
5615.9
8926.7
8849.8
5419.6
-65.182
-5541.3
-8959.9
-9048.3
-5777.2
-369.08
5155.8
8730.9
9016.8
5906.9
567.89
-4998.3
-8706.6
-9167.4
-6205.6
-927.25
4687.9
8525.1
9131.8
6273.3
1027.5
-4624
-8552.1
-9286
-6561.6
-1408
4245.1
8287.6
9210.5
6666.9
1604.7
-4082
-8260.7
-9362.4
-6971.8
-1983.4
3734.7
8038.3
9307.2
7053.4
2112.7
-3661.3
-8094.3
-9518.4
-7407.3
-2569.6
3172.3
7677.8
9285.2
7414.2
2767.5
-2930.1
-7558.9
-9385.1
-7712.2
-3156.9
2572
7316.1
9286.7
7739.9
3253.5
-2493.3
-7347.2
-9483.1
-8089.6
-3683
2079.5
7025
9294
8046.6
3771.1
-1916.5
-6889
-9298.8
-8252.8
-4136.7
1522
6609.3
9206.9
8320
4267.9
-1423.8
-6601.7
-9309.8
-8535
-4584.9
1044.2
6241.6
9075.4
8502.4
4744.2
-801.45
-6074.1
-9106.7
-8754.7
-5131.5
416.85
5804.1
8989.1
8756.9
5190.9
-356.73
-5784.3
-9045.9
-8925.7
-5487.1
-33.349
5391.5
8767.4
8843.8
5596.8
234.8
-5246.6
-8801.2
-9092.6
-5999.5
-671.63
4891.5
8591
9024.4
6022.4
716.12
-4892.9
-8693.1
-9260
-6388.6
-1163.9
4450.2
8348.1
9069.4
6344
1191.7
-4462.9
-8514.2
-9462.8
-6971.5
-1984.5
3626.4
7755.1
8841.2
6456.1
1477.9
-4221.4
-8471
-9622.3
-7178.6
-1981.7
4112.3
8936.9
10818
9179.1
4733.8
-787.78
-5279.4
-7038.1
-5404.5
-1021.6
4399.1
8726.6
10230
8249.1
3449.5
-2426.4
-7220.7
-9173.6
-7584.3
-3073.6
2648.4
7423
9450.2
7962.2
3508.8
-2248.8
-7159.4
-9386
-8094.5
-3768.7
1967.3
6956.9
9321.1
8166.3
3921.9
-1820.3
-6904.2
-9419.9
-8423.3
-4292.4
1416
6555.1
9197.9
8360.6
4365
-1289.5
-6489.4
-9293.4
-8652.2
-4799.8
828.11
6124.5
9097.8
8622.9
4870.7
-752.45
-6133.8
-9250.6
-8932.7
-5302.6
271.59
5692.8
8925.8
8764.3
5280.7
-208.01
-5642.2
-8991.9
-9010.9
-5693.9
-277.22
5217.5
8730.7
8935.6
5742.7
344.1
-5231.1
-8884.3
-9242
-6172.7
-830.24
4784.3
8572.5
9118.7
6215.8
944.76
-4723.2
-8660.4
-9381.5
-6608.4
-1381.7
4328.8
8369.7
9221.2
6573.5
1438
-4243.5
-8339.4
-9328.3
-6857.5
-1860
3800.6
8017.4
9212.7
6923.1
1983.9
-3764.7
-8159.9
-9536.6
-7368.7
-2472.7
3307.3
7804
9341.6
7353.6
2585.9
-3180.2
-7784.2
-9491.5
-7651.9
-2955.1
2825.9
7512.1
9349
7663.3
3101.3
-2625.3
-7378.7
-9382.5
-7877.7
-3412.4
2351.2
7252.8
9449.2
8115.7
3759.5
-1974.7
-6928.6
-9241.3
-8044.1
-3783.3
1946
6996.5
9473.4
8447.3
4304.3
-1398.9
-6520
-9135.5
-8264.7
-4238.9
1423.3
6592.1
9332.3
8628.6
4755.2
-840.06
-6079.7
-9019.4
-8558.4
-4850.8
732.55
6095.3
9200.2
8854.5
5181.7
-423.59
-5840.8
-9040.6
-8844.3
-5344.9
144.56
5578
8923.4
8914.8
5537.9
54.25
-5467.8
-8944.1
-9073.5
-5823.6
-424.72
5105.1
8710.1
9046.6
5976.7
630.14
-4998.3
-8788.9
-9303.4
-6342.5
-1026
4639
8524.1
9180.3
6371.8
1155.1
-4517
-8521.3
-9357.4
-6710.5
-1573.2
4127.2
8252.3
9253.8
6752.9
1683.9
-4051.7
-8296.7
-9453.4
-7090.6
-2105.9
3622.6
7951.3
9273.4
7105.9
2256.9
-3472.2
-7944.5
-9475.6
-7473.1
-2678.6
3099.1
7673.4
9319.8
7430.9
2731.6
-3010.6
-7651.5
-9460.7
-7757.6
-3168
2596
7370.5
9358.1
7815.4
3333
-2399.4
-7238.2
-9386
-8047.3
-3715.7
2002
6967.8
9303.8
8109
3820.8
-1940.1
-6990.7
-9427.2
-8348.1
-4178.6
1509.6
6594.8
9188.4
8325.5
4321.7
-1334
-6524.5
-9295.5
-8598.6
-4694.1
947.55
6204.8
9106.2
8566.3
4785.8
-824.77
-6166.7
-9233.6
-8866.8
-5199.1
387.73
5786.9
8968.9
8749.3
5227.4
-264.97
-5669.4
-8967.8
-8927.6
-5558.9
-117.44
5356.8
8802.4
8916.2
5651.7
237.06
-5290.8
-8857.4
-9128.8
-6007
-662.55
4903.9
8608.8
9065
6102.4
832.78
-4767.6
-8599.9
-9228.2
-6416
-1215.7
4422.4
8379.1
9162.4
6474
1323.5
-4353
-8426.8
-9375.9
-6849.5
-1791.7
3911.2
8128.8
9275.3
6907.2
1901.7
-3862.6
-8213.5
-9512
-7274.7
-2350.3
3409
7846.6
9303.2
7231.6
2402.4
-3375.4
-7928.1
-9538.9
-7602.2
-2853.3
2918.2
7550.6
9319.8
7572.9
2962.3
-2794.1
-7544.8
-9504
-7927.8
-3404.7
2363.3
7207.7
9315.4
7905.1
3508.4
-2233.5
-7176.9
-9467.4
-8235.1
-3932.8
1822.4
6859.6
9282.7
8188.9
4000.2
-1710.5
-6812.5
-9405.1
-8515.4
-4463.5
1244
6465
9227.2
8481.4
4507.1
-1194.7
-6475.2
-9352.4
-8753.6
-4911.7
726.88
6045.2
9049.7
8617.5
4916.3
-662.37
-6026.9
-9168.1
-8908.9
-5344.6
187.48
5606.7
8873.1
8761.7
5324.6
-138.12
-5579.5
-8974.6
-9064
-5808.2
-403.18
5147
8760.8
9061.1
5915.5
506.82
-5113.8
-8820.7
-9229.3
-6209.3
-909.58
4687
8498.9
9105.8
6271.8
1044.9
-4619.7
-8589.2
-9364.6
-6653.5
-1479
4215
8296.4
9238
6681.5
1573.8
-4176.1
-8406.1
-9517.8
-7090
-2041.6
3722.2
8037.2
9295.2
7037.3
2115.4
-3628.3
-8044.7
-9477.5
-7386.2
-2554
3204.7
7727.5
9317.8
7379.6
2638.2
-3130.3
-7761.1
-9512.8
-7725.8
-3074.7
2687.6
7396.4
9292
7673.7
3152.2
-2583.5
-7391.1
-9468.3
-8028
-3602.6
2147.8
7059.5
9284.3
7986.9
3654.1
-2091.2
-7096.3
-9480.2
-8339.8
-4098.4
1646.3
6728.6
9242.5
8262.6
4176.4
-1482.2
-6612.5
-9313.7
-8573.5
-4645.8
1018.2
6289.1
9160.5
8531.8
4646.1
-1007.9
-6285.3
-9212.3
-8717
-5002.3
547.89
5875.2
8992.3
8716.6
5127.5
-440.44
-5891.6
-9169.1
-9042.8
-5572.7
-73.962
5385.4
8756.3
8765
5386.1
-138.69
-5754.1
-9358.1
-9598.5
-6390.2
-947.03
4684.2
8404.8
8856.4
5924.9
774.24
-4593.2
-8081.2
-8275.1
-4971.5
728.9
6802.6
11035
11847
8910.8
3297.8
-2911.1
-7426.5
-8633.7
-6200.4
-1170.5
4468.5
8549.8
9526.4
7022.5
1958.2
-3789.6
-8078.6
-9303
-7006.9
-2062.8
3659.9
8006.6
9348.1
7182.2
2313.1
-3448.5
-7952.9
-9512.1
-7538.3
-2773.3
2990.2
7590
9311.1
7519.6
2887.5
-2863.1
-7591.4
-9525.2
-7924.6
-3376.4
2411.3
7252.1
9319.4
7843.4
3394.1
-2349.5
-7238.8
-9453.3
-8170.1
-3866.2
1852.9
6846.6
9239.7
8131
3934.5
-1777.3
-6865.2
-9423.1
-8489
-4407.1
1293.9
6467.5
9159.3
8350.6
4348.7
-1333.4
-6555.3
-9359.1
-8700.4
-4832.4
792.83
6067.5
9017
8541.5
4829
-720.12
-6025
-9104.6
-8811.4
-5251.8
252.53
5646.6
8901.6
8779
5311.5
-198.22
-5671.2
-9047.3
-9065.8
-5730.5
-293.63
5216.3
8743.5
8963.5
5781.6
383.11
-5200.2
-8858.3
-9209.8
-6128.7
-783.2
4816.5
8576.8
9096.3
6181
917.33
-4725.3
-8626.3
-9314.6
-6529.7
-1320.3
4357.7
8382
9254.4
6650.4
1535.3
-4186.7
-8370
-9428.2
-6943.4
-1841.8
3949.6
8240.7
9419.9
7063
2079.3
-3648.4
-7976.3
-9294.5
-7115.1
-2247.7
3500.1
7987.7
9535.1
7552.9
2772.7
-3015.6
-7630.4
-9323.7
-7449.6
-2714.7
3092
7783.4
9603.1
7879.8
3266.2
-2512.1
-7297.4
-9297.7
-7756.7
-3247.3
2532.6
7400.3
9521.7
8109.3
3710
-2019.3
-6942.4
-9234.2
-8044.8
-3808.9
1902.7
6951.5
9425.8
8372.1
4172.9
-1591.2
-6747.5
-9361.3
-8464.1
-4405
1291.3
6494.2
9256.2
8537.1
4598.7
-1084.8
-6378.1
-9292
-8735.7
-4924.3
708.87
6052.2
9102.7
8711.5
5016.8
-600.08
-6027
-9219.1
-8975.8
-5395.9
167.83
5626.7
8941.5
8877.9
5458.3
-45.69
-5580.1
-9069.6
-9198.3
-5913.1
-449.4
5136.7
8748.5
9037.9
5904.9
528.44
-5076
-8807
-9263.2
-6272.9
-962.71
4667.6
8504.6
9117.5
6287.9
1078.7
-4567.5
-8546.4
-9366.1
-6704.5
-1544.3
4178.7
8300.8
9257.6
6687.9
1570.8
-4156.9
-8342.6
-9427.3
-7017
-2019
3698.6
7997.6
9264.8
7018.6
2097.7
-3649.9
-8063.9
-9486.7
-7386.2
-2550.5
3210.6
7742.1
9346.9
7421.3
2684.3
-3088.4
-7730.7
-9502.3
-7742.2
-3113.2
2650.6
7392.4
9335.2
7743.8
3205.4
-2580.7
-7436.4
-9528.7
-8069
-3614.2
2151.1
7059.9
9280.1
7993.1
3687.5
-2029.6
-7027
-9437.2
-8351.9
-4168.8
1548.4
6652.3
9220.2
8281.2
4183.3
-1536.3
-6728.8
-9441.2
-8652.4
-4659.3
1034.7
6289.8
9138.1
8522.6
4686.1
-929.16
-6223
-9217.7
-8790.6
-5094.4
491.58
5870.9
9015.9
8737
5135.7
-432.68
-5874
-9146.1
-9024
-5555.9
-42.171
5450.9
8864.8
8920.9
5600.9
151.7
-5384.8
-8938.4
-9182.1
-6024.1
-642.14
4951.4
8656.6
9075.2
6044.2
705.85
-4924.3
-8726.1
-9278.9
-6390.1
-1152.2
4476.7
8400.5
9155.3
6448.4
1276.4
-4431.4
-8527.4
-9458.8
-6866.1
-1725.9
4021.4
8211.6
9273.1
6811.9
1752.5
-4007.9
-8307.7
-9530.8
-7218.1
-2243.3
3519.7
7908.8
9288.5
7153.6
2306.7
-3445
-7955.8
-9533.7
-7574.5
-2801.8
2993.1
7625.6
9350.4
7525.5
2846.8
-2925.1
-7630.6
-9513.3
-7867.9
-3303.7
2475.1
7299.8
9353.4
7860.8
3385.2
-2387.9
-7289.8
-9484.7
-8153.8
-3799.3
1942.8
6914.1
9247.3
8072.8
3844.3
-1842.4
-6859.9
-9343.6
-8373.2
-4301.8
1370
6532.1
9236.1
8434.2
4401.1
-1347.3
-6630.4
-9449.5
-8756.4
-4836.6
825.23
6115.7
9072.5
8597
4858.4
-754.73
-6136
-9251.7
-8921.8
-5276.5
299.44
5706.3
8926.6
8769.9
5298.9
-198.4
-5676.4
-9081
-9119.5
-5763.6
-274.61
5273.9
8792.1
8969.7
5759.4
376.59
-5165.8
-8802.9
-9176.6
-6138.4
-814.19
4803.6
8598.3
9131.6
6195.5
896.39
-4765.4
-8657
-9320.9
-6520.5
-1318.7
4331.2
8321.4
9172
6571.6
1487
-4193.2
-8351.1
-9423.1
-6990.6
-1952.8
3798.2
8089.1
9294
6954.9
1954.3
-3825
-8212.3
-9564.1
-7376.1
-2470.6
3311.4
7800.3
9314.1
7290.2
2493.9
-3273.5
-7851.4
-9526.6
-7670.3
-2974.2
2803.7
7493.4
9328.4
7613.6
2989.5
-2810.7
-7616.5
-9637.9
-8135
-3692.3
2003.1
6798.4
8887.3
7490.7
3144.6
-2511.5
-7355.7
-9570.5
-8303.8
-3972.2
1891.6
7191.8
10035
9439.9
5713.1
344.15
-4567.5
-7122.8
-6349.3
-2558
2791
7645.3
10123
9211.7
5152.6
-624.16
-6016.2
-9035
-8567.9
-4811.4
800.4
6142.2
9200.7
8824.7
5149.3
-456.34
-5896
-9128.4
-8938.2
-5401.1
142.63
5601
8926.7
8884.4
5500.6
40.61
-5464.9
-8965.7
-9147
-5924.6
-492.8
5107.8
8756.6
9063.9
5908.7
486.89
-5149.6
-8879.1
-9311.4
-6301.1
-986.67
4644.3
8496.1
9138
6332.2
1123.6
-4542.8
-8544
-9375.3
-6719.6
-1571
4138.1
8263.3
9253.4
6731.3
1637.8
-4116.8
-8366.4
-9507.4
-7110
-2083.7
3671.2
7991.3
9267.5
7039.9
2153.2
-3567.2
-7990.4
-9462.7
-7421.3
-2616.1
3157.1
7725.1
9361.6
7447.4
2704.2
-3083.8
-7746.8
-9542.6
-7802.3
-3176.6
2605.2
7378.8
9354.5
7791.4
3277.8
-2490.2
-7347.7
-9473.6
-8070.5
-3662.7
2098.3
7050.1
9330.6
8081.2
3772.4
-1973.3
-6995.8
-9410.7
-8315.2
-4122.6
1594.6
6694
9265.7
8348.5
4289.8
-1386.8
-6554.5
-9278.5
-8535.7
-4594.6
1079.6
6363.7
9268
8690.4
4844.5
-814.43
-6146
-9143.6
-8692.7
-4976.3
610.81
5989
9159.6
8938.2
5397.4
-146.07
-5611
-8933.6
-8854.5
-5401.3
125.65
5651.4
9108.4
9205.5
5905.2
440.51
-5138.5
-8730.3
-8979.1
-5794.5
-384.56
5210.7
8896.2
9303.2
6286.4
968.2
-4675.1
-8537.9
-9166.9
-6316
-1053.1
4636.6
8606.7
9366
6636.1
1443.7
-4271.7
-8379.3
-9343.3
-6795.9
-1685.9
4065.9
8287.6
9384.6
6948.8
1907.1
-3840.1
-8141.8
-9398.2
-7146.9
-2229.7
3517.5
7941.9
9376.7
7273.4
2416.2
-3370.6
-7913.7
-9512.9
-7577.7
-2841.6
2920.2
7554.5
9330.6
7582.6
2959
-2813.9
-7573.5
-9531.1
-7947.4
-3415.5
2361
7210.4
9312.9
7884.8
3468.6
-2275.6
-7195
-9448.7
-8193.5
-3897.5
1832.9
6851.6
9275.3
8191.4
4003.5
-1717.7
-6825.8
-9405
-8490.1
-4426.6
1260
6436.1
9158.9
8404.8
4455.6
-1204.4
-6446
-9298.5
-8693.2
-4864.4
744.71
6030.4
9018.5
8597.8
4927.4
-625.46
-5991.3
-9163.2
-8944.5
-5402.9
143.03
5611.5
8942
8878.1
5445.6
-59.579
-5565.9
-9009
-9104.2
-5820.6
-388.7
5158.8
8743.1
9015.9
5868.6
479.86
-5124.2
-8833.6
-9253.5
-6230.1
-905.7
4717.6
8533.3
9118.4
6261.2
1034.4
-4606.5
-8551.3
-9319.7
-6615.3
-1443.2
4257.6
8337.1
9246.8
6632.7
1478.3
-4267.6
-8435.5
-9462.2
-6978
-1932.3
3777.9
8022.9
9227.9
6948.1
2030.1
-3697
-8093.7
-9506.4
-7391.6
-2531.2
3254.9
7791
9368.4
7392.2
2607.3
-3182.6
-7797.7
-9505.3
-7672.4
-2997.4
2760.1
7442.7
9299.4
7633.6
3062.5
-2706.6
-7507.3
-9528.9
-8006.7
-3517.1
2245.1
7117.7
9287.7
7958
3626.9
-2102.7
-7104.3
-9501.9
-8373.3
-4119.1
1663.1
6781.5
9299.1
8281.5
4139.3
-1555.2
-6675.2
-9324.1
-8519.3
-4549.2
1117.1
6355.2
9178.3
8504.3
4584.7
-1091.7
-6380.1
-9301.9
-8780.4
-5022.3
570.72
5918.1
9022.2
8711.9
5093
-479.31
-5908.9
-9155
-9002.7
-5513.1
6.0878
5487.3
8870.6
8876.4
5497.9
15.857
-5489.6
-8940.7
-9055.6
-5817.4
-453.15
5040.7
8631.2
8981.8
5941.6
620.59
-4998.7
-8796.1
-9326.8
-6385.7
-1085.8
4576.8
8483.6
9181.3
6408.8
1191.2
-4529
-8602.3
-9482.9
-6830.5
-1654
4078.3
8204.9
9197.2
6717.4
1715.1
-3944.2
-8162.5
-9368.8
-7096
-2171.7
3566.7
7952.4
9315.2
7129
2217.6
-3564.2
-8040.7
-9537.8
-7503.3
-2704.7
3062.8
7643.3
9322
7466
2766.5
-3015
-7706.2
-9543.3
-7837.3
-3232.5
2540.7
7320
9319.6
7792.6
3307.2
-2462
-7352.8
-9523.6
-8152.1
-3753.5
2012.5
6976.6
9284.8
8089.1
3847.7
-1858.3
-6908.6
-9417.9
-8432.2
-4301.1
1428.8
6586.7
9211.4
8314.9
4257.9
-1408.5
-6552.6
-9265.3
-8552.5
-4683.8
909.51
6149.5
9072
8565.7
4806.9
-794.92
-6131.7
-9199.1
-8850.7
-5219.3
338.69
5746.1
8971.7
8791
5258.5
-298.84
-5781.1
-9119.6
-9065.9
-5655.2
-176.23
5321.9
8791.3
8938.5
5702.5
286.53
-5281.8
-8908.5
-9227.7
-6123
-769.75
4814
8530.8
8987.7
6011.6
708.16
-4952.5
-8870.7
-9598.1
-6874.3
-1722.1
3930.4
7961.5
8847.9
6247.8
1152.3
-4472.9
-8436.4
-9169.7
-6327.9
-900.34
5191.9
9818.7
11397
9425.3
4649.8
-1178.3
-5900.9
-7740.9
-6005.9
-1404.4
4206.3
8565.2
9923.9
7729.3
2801.1
-3026
-7609.6
-9281
-7440.5
-2779.1
2957.5
7604.2
9393.9
7641.7
3010.4
-2751.5
-7485.4
-9433.3
-7879.4
-3403.6
2331.1
7183
9323.1
7930.3
3518.2
-2249.6
-7195
-9458.5
-8201.3
-3909.3
1802.1
6795.2
9203.5
8124
3957.7
-1734.7
-6816.5
-9380.3
-8467.5
-4424.6
1233.1
6392.1
9126.3
8410
4500.9
-1148.3
-6424.2
-9342.3
-8798.3
-4991.3
648.24
5999.1
9051.1
8660.8
4978.4
-611.68
-6010.8
-9193.5
-8967.1
-5420
113.33
5555.3
8866.2
8808.4
5407.3
-59.433
-5540.8
-8980.6
-9088.4
-5825
-415.73
5110.9
8685.1
8968.8
5853.1
499.18
-5090.5
-8816.3
-9270.7
-6276.1
-960.78
4667.5
8489.5
9081
6243
1057.7
-4532.7
-8449.8
-9239.6
-6601.3
-1504.4
4154.8
8248
9217.3
6679.7
1585.6
-4139.5
-8334.8
-9426.8
-7016
-2013.1
3710.6
8019.4
9302.2
7072.1
2156.4
-3602.6
-8035.8
-9468.2
-7356.9
-2496.6
3285.5
7821.8
9418.5
7485.2
2752
-3005.8
-7629.7
-9385.6
-7612.3
-2969.7
2808.6
7563.7
9517.1
7935.6
3408.8
-2366.7
-7219.2
-9319.1
-7872.1
-3420.5
2362.8
7308.3
9565.9
8294.9
3974.2
-1776.3
-6798.6
-9204.9
-8090.7
-3881.3
1830.4
6893.2
9413.8
8463
4407.1
-1242.1
-6389.8
-9124.7
-8420.1
-4523.1
1119
6385.3
9278.5
8691.4
4837
-830.62
-6173.6
-9184.6
-8742.1
-5023.6
568.56
5936.4
9070.1
8797.3
5219.4
-326.47
-5766.8
-9065.2
-8983.6
-5548
-43.315
5463.5
8899.4
8968.7
5646
185.28
-5356.5
-8899.3
-9121.6
-5950.1
-579.22
4980
8649.7
9057.3
6046.4
737.94
-4884
-8712.1
-9306.6
-6439.4
-1184.7
4483.3
8434.6
9187.4
6465.5
1298.6
-4371.4
-8422.5
-9345.3
-6801
-1742.2
3941.2
8122.6
9230.2
6838.7
1838.7
-3891.6
-8193.7
-9447.9
-7186.7
-2266.7
3460.7
7847.2
9248.9
7137
2296.4
-3461.6
-7973.3
-9538
-7565.4
-2800.3
2963.6
7567.4
9298.1
7520.1
2901
-2838.6
-7556.6
-9479
-7866.9
-3310.5
2477.9
7309.6
9358.2
7859.5
3394.8
-2345.2
-7209.4
-9389.7
-8082.8
-3777.9
1924.9
6900.3
9284
8173
3974.4
-1739
-6819.8
-9358.2
-8403.3
-4317.8
1362.3
6506.3
9185.4
8394.3
4428.3
-1224.8
-6441.9
-9263.3
-8630.3
-4782.4
835.2
6116.2
9081.6
8619.2
4899.2
-687.09
-6045.7
-9165.2
-8873.2
-5279.3
267.51
5686.7
8947.5
8827.5
5368.4
-138.3
-5631.1
-9048
-9101.9
-5769.5
-302.15
5245.6
8792
9010.8
5825.6
435.3
-5135.6
-8794.9
-9168.8
-6120.8
-803.92
4778.6
8533.6
9065.3
6188.4
984.52
-4606.9
-8503.4
-9244.1
-6535.6
-1375.9
4302.2
8353.8
9241
6627.2
1505.7
-4187.1
-8312.9
-9334.9
-6882.3
-1876.9
3811.4
8056.8
9266.1
6979.1
2048.3
-3676.3
-8044.6
-9418.1
-7285.1
-2448
3281.6
7759.4
9307.7
7341.1
2589
-3171.8
-7781.1
-9508.2
-7704.4
-3048.1
2713.2
7421
9316.1
7695.3
3170.2
-2563.9
-7362.7
-9432.3
-7997.1
-3589.4
2145.5
7059.4
9302.8
8022.6
3690.9
-2066.4
-7082.6
-9471.5
-8340.5
-4121.1
1601.7
6687.9
9239.9
8305
4230.9
-1457.7
-6623.9
-9321.8
-8535.6
-4566.1
1086.9
6298.1
9118
8495.9
4663.9
-950.74
-6251
-9246.9
-8804.7
-5084.2
513.53
5877.9
8994.1
8702.9
5126.8
-390.28
-5788.9
-9055.2
-8963.5
-5536.1
-46.512
5447.1
8874.6
8941.5
5622.5
169.75
-5364.7
-8904.1
-9125.7
-5953.6
-584.98
4960.8
8603.1
8983.2
5971.1
704.66
-4844.7
